Baseline 100%T,,Pyranine in 10M water in 70:30 1-butanol:acetonitrile,,
Wavelength (nm),Abs,Wavelength (nm),Abs,
549.9830322,0.03549183905,549.9830322,0.003391430015,
549.795105,0.03546147421,549.795105,0.0033742378,
549.6071777,0.03532930836,549.6071777,0.003389316844,
549.3816528,0.03519872949,549.3816528,0.003568948945,
549.1937256,0.03516765684,549.1937256,0.003515265649,
549.0057983,0.03577679396,549.0057983,0.003615173744,
548.8178101,0.03575127199,548.8178101,0.003548513632,
548.5922852,0.0355749093,548.5922852,0.003594031557,
548.4042969,0.03544765338,548.4042969,0.003638092196,
548.2162476,0.03526925296,548.2162476,0.003717089305,
547.9907227,0.03519856185,547.9907227,0.003712415928,
547.8027344,0.03515036777,547.8027344,0.003669078462,
547.6147461,0.03504405543,547.6147461,0.003622821998,
547.3890991,0.03494363651,547.3890991,0.003669574624,
547.2010498,0.03490542993,547.2010498,0.003784245579,
547.0130005,0.03484971821,547.0130005,0.003896387061,
546.7874146,0.03473170474,546.7874146,0.004013678525,
546.5993042,0.0347007215,546.5993042,0.004008270334,
546.4112549,0.03457949683,546.4112549,0.004080122802,
546.1855469,0.03447977453,546.1855469,0.004231547937,
545.9974976,0.03440377489,545.9974976,0.004417438991,
545.8093872,0.03431182355,545.8093872,0.004586248193,
545.5836792,0.03423358873,545.5836792,0.004564482719,
545.3955688,0.03415811062,545.3955688,0.004421230871,
545.2074585,0.03409513459,545.2074585,0.004406429827,
544.9817505,0.03393990174,544.9817505,0.004469586536,
544.7935791,0.03373928741,544.7935791,0.004613691475,
544.6054077,0.0336041227,544.6054077,0.004761089571,
544.4172974,0.0335580036,544.4172974,0.004861677531,
544.1914673,0.03343486041,544.1914673,0.004901887849,
544.0033569,0.03335144371,544.0033569,0.005050457548,
543.8151855,0.03331628069,543.8151855,0.005034535192,
543.5893555,0.0332159549,543.5893555,0.005099669099,
543.401123,0.03313657269,543.401123,0.005114729516,
543.2129517,0.03308463842,543.2129517,0.004916967824,
542.9870605,0.03378693387,542.9870605,0.004480283707,
542.7988892,0.03362834454,542.7988892,0.004179952201,
542.6106567,0.03347990289,542.6106567,0.003908976912,
542.3847656,0.03331155702,542.3847656,0.00383096328,
542.1964722,0.0332194455,542.1964722,0.003846580628,
542.0082397,0.03308989108,542.0082397,0.004017205443,
541.7823486,0.03301751614,541.7823486,0.004068233538,
541.5941162,0.03300802037,541.5941162,0.004059558734,
541.4058228,0.03300045058,541.4058228,0.004016552586,
541.2175293,0.03292705864,541.2175293,0.003947845194,
540.9915771,0.03217254207,540.9915771,0.003922585398,
540.8032837,0.03210893273,540.8032837,0.003934444394,
540.6149902,0.03199932352,540.6149902,0.003942855634,
540.3889771,0.03187776357,540.3889771,0.003971303813,
540.2006836,0.0317568779,540.2006836,0.003953774925,
540.0122681,0.031538371,540.0122681,0.004030921962,
539.7863159,0.03145645559,539.7863159,0.004034893587,
539.5979004,0.03135756031,539.5979004,0.004028544761,
539.4095459,0.03133004159,539.4095459,0.003953017294,
539.1834717,0.03122947551,539.1834717,0.003889230546,
538.9951172,0.03110924363,538.9951172,0.003925537225,
538.8067627,0.03104034066,538.8067627,0.003918536939,
538.5806885,0.03098178841,538.5806885,0.003987605218,
538.3922729,0.03093294613,538.3922729,0.003945441917,
538.2037964,0.03085167706,538.2037964,0.003957693465,
538.0153809,0.03075074777,538.0153809,0.003975222353,
537.7893066,0.03064214997,537.7893066,0.004035834223,
537.6008301,0.03058104031,537.6008301,0.004034345038,
537.4124146,0.03054093756,537.4124146,0.004131785594,
537.1862183,0.03044946492,537.1862183,0.004199319519,
536.9978027,0.03044546768,536.9978027,0.00420316169,
536.8092041,0.03038580343,536.8092041,0.004296823405,
536.5831299,0.03036895208,536.5831299,0.004365193658,
536.3945923,0.03033497371,536.3945923,0.004368043505,
536.2061157,0.03026819043,536.2061157,0.004414928611,
536.0176392,0.0301888492,536.0176392,0.004442387726,
535.7913818,0.03011054732,535.7913818,0.004517215304,
535.6027832,0.03007209487,535.6027832,0.004535159096,
535.4143066,0.0300350897,535.4143066,0.004549964797,
535.1880493,0.0299414508,535.1880493,0.004544366617,
534.9994507,0.03063498251,534.9994507,0.004562285263,
534.8109131,0.03059323505,534.8109131,0.00449916767,
534.5846558,0.03061414883,534.5846558,0.00438974658,
534.3961182,0.03053752147,534.3961182,0.004382137209,
534.2075195,0.03051474877,534.2075195,0.004242892843,
533.9811401,0.03045887873,533.9811401,0.004242422059,
533.7926025,0.03049050644,533.7926025,0.004132909235,
533.6039429,0.0304866191,533.6039429,0.004157161806,
533.4153442,0.03050944395,533.4153442,0.004044038244,
533.1889648,0.03058795631,533.1889648,0.003895499045,
533.0003052,0.02989718877,533.0003052,0.003715940518,
532.8117065,0.02990365028,532.8117065,0.003620081116,
532.5852661,0.02989017405,532.5852661,0.003524634289,
532.3966064,0.0298799146,532.3966064,0.003443715163,
532.2079468,0.02985479124,532.2079468,0.003389473306,
531.9815674,0.02984705567,531.9815674,0.003266612533,
531.7928467,0.02988016233,531.7928467,0.003218964441,
531.604187,0.02986848913,531.604187,0.003142691217,
531.4154053,0.02986521646,531.4154053,0.003140214365,
531.1890259,0.02991233021,531.1890259,0.003072636202,
531.0002441,0.03061417677,531.0002441,0.003076963825,
530.8115234,0.03070632182,530.8115234,0.002995450515,
530.585022,0.03070182167,530.585022,0.003044560086,
530.3962402,0.03070282191,530.3962402,0.003024018835,
530.2075195,0.030717602,530.2075195,0.003014087444,
529.9810181,0.03065123223,529.9810181,0.003133096267,
529.7921753,0.03060914949,529.7921753,0.003219694598,
529.6034546,0.03061242774,529.6034546,0.003260822501,
529.4146729,0.03056946024,529.4146729,0.003343298566,
529.1881104,0.03065303899,529.1881104,0.003387620905,
528.9992676,0.03071849048,528.9992676,0.003439931897,
528.8104248,0.03083644621,528.8104248,0.003344316036,
528.5838623,0.03098729439,528.5838623,0.003290086286,
528.3950195,0.03103842214,528.3950195,0.003310483648,
528.2062378,0.03110785224,528.2062378,0.003274332732,
528.0172729,0.03118544444,528.0172729,0.003327803686,
527.7907104,0.03123075515,527.7907104,0.003283722326,
527.6018066,0.03126079589,527.6018066,0.003297024406,
527.4130249,0.03133966774,527.4130249,0.003247573506,
527.1863403,0.03139275685,527.1863403,0.003187540919,
526.9974365,0.03069762699,526.9974365,0.003239566926,
526.8085327,0.03077389486,526.8085327,0.003226605477,
526.5818481,0.03084389493,526.5818481,0.003215261269,
526.3928833,0.0308337789,526.3928833,0.003218312282,
526.2040405,0.03093939647,526.2040405,0.00316373352,
526.0150146,0.03101206385,526.0150146,0.00317228632,
525.7883911,0.03107123077,525.7883911,0.003263769671,
525.5993042,0.03121078387,525.5993042,0.003221128834,
525.4104614,0.03126382828,525.4104614,0.003272924107,
525.1836548,0.0313372761,525.1836548,0.003304927843,
524.9946899,0.03143458441,524.9946899,0.003373637563,
524.8056641,0.03148952127,524.8056641,0.003448959673,
524.6166382,0.03158460557,524.6166382,0.003455195809,
524.3898926,0.03166298196,524.3898926,0.003482907312,
524.2008667,0.0317398645,524.2008667,0.003628042527,
524.0119019,0.03187829256,524.0119019,0.003616974922,
523.7850342,0.03191659972,523.7850342,0.003643339267,
523.5960083,0.03200316802,523.5960083,0.003671114799,
523.4069214,0.03209608421,523.4069214,0.003712781472,
523.1801147,0.03214474767,523.1801147,0.003812526353,
522.9910278,0.0322868228,522.9910278,0.00391798839,
522.8019409,0.03233475611,522.8019409,0.004039413761,
522.612854,0.03240074217,522.612854,0.004173679277,
522.3859253,0.03258282319,522.3859253,0.004205540288,
522.1968994,0.03269922361,522.1968994,0.004322130699,
522.0078125,0.03271479532,522.0078125,0.004468540661,
521.7808228,0.03285110742,521.7808228,0.004552030936,
521.5917358,0.03295819461,521.5917358,0.004546407145,
521.4025879,0.03299324587,521.4025879,0.004714324139,
521.213501,0.03315236047,521.213501,0.004691087175,
520.9865112,0.03330565989,520.9865112,0.004655239638,
520.7973633,0.03346922249,520.7973633,0.004618950188,
520.6081543,0.03352769092,520.6081543,0.004689961672,
520.3811646,0.03364688903,520.3811646,0.004626615904,
520.1920166,0.03378556296,520.1920166,0.004470345099,
520.0028076,0.03384298086,520.0028076,0.004176057875,
519.8135986,0.03399762139,519.8135986,0.003855982563,
519.5865479,0.03412795067,519.5865479,0.003837962402,
519.3973389,0.03419037163,519.3973389,0.004132386297,
519.2081299,0.03429134563,519.2081299,0.00438765483,
518.9810791,0.03446264938,518.9810791,0.004563645925,
518.7918701,0.03465081379,518.7918701,0.004754363559,
518.6025391,0.03468611464,518.6025391,0.005032911431,
518.4133911,0.03483381495,518.4133911,0.005120229907,
518.1862183,0.03504366428,518.1862183,0.005190852098,
517.9970093,0.03509917483,517.9970093,0.005373877939,
517.8077393,0.03519117832,517.8077393,0.005416337401,
517.5805664,0.03532675654,517.5805664,0.005588970147,
517.3912964,0.03539372981,517.3912964,0.005666880403,
517.2019653,0.03557044268,517.2019653,0.005650384817,
517.0126953,0.03564728796,517.0126953,0.005546336528,
516.7854614,0.03581525013,516.7854614,0.005153731909,
516.5961304,0.03591272235,516.5961304,0.004945008084,
516.4067993,0.03591162711,516.4067993,0.004985540174,
516.1796265,0.03604239225,516.1796265,0.004909663461,
515.9902344,0.03618982434,515.9902344,0.004889007658,
515.8009033,0.03634366766,515.8009033,0.005023588426,
515.6115112,0.03643315285,515.6115112,0.005117270164,
515.3842773,0.03654501215,515.3842773,0.005120570306,
515.1948853,0.03660924733,515.1948853,0.005221948959,
515.0055542,0.0367108956,515.0055542,0.005231721327,
514.8161011,0.03689783812,514.8161011,0.00527649885,
514.5888062,0.03706121072,514.5888062,0.005299479235,
514.399353,0.03719037771,514.399353,0.005371283274,
514.2099609,0.03733693063,514.2099609,0.005397046916,
513.982666,0.03753797337,513.982666,0.005312948022,
513.7932129,0.03777194768,513.7932129,0.005096735433,
513.6038208,0.03796118498,513.6038208,0.00481100101,
513.4143066,0.03819504753,513.4143066,0.004469246604,
513.1869507,0.03833645582,513.1869507,0.004222843796,
512.9974976,0.03845231235,512.9974976,0.003958973568,
512.8080444,0.0384779945,512.8080444,0.003904902143,
512.5806274,0.03844928741,512.5806274,0.003946068697,
512.3911743,0.03841501102,512.3911743,0.004019766115,
512.2016602,0.03843268752,512.2016602,0.004015272018,
512.012085,0.03839784488,512.012085,0.004123919178,
511.784668,0.03841851652,511.784668,0.004066848662,
511.5951538,0.03846656904,511.5951538,0.004011640791,
511.4055786,0.03858503327,511.4055786,0.003885835176,
511.2161255,0.03868061304,511.2161255,0.003873559413,
510.9886169,0.03875603154,510.9886169,0.003895081114,
510.7990417,0.03893978149,510.7990417,0.003773931181,
510.609436,0.03889521584,510.609436,0.003899416886,
510.3819885,0.03903727606,510.3819885,0.003816182259,
510.1923828,0.03911952674,510.1923828,0.003845353145,
510.0028076,0.03930626437,510.0028076,0.003740457119,
509.8132324,0.03937102109,509.8132324,0.00371058844,
509.5856934,0.03946251795,509.5856934,0.003715444589,
509.3960266,0.039524097,509.3960266,0.00368299312,
509.2064209,0.0396364145,509.2064209,0.003699362045,
508.9788818,0.03976688907,508.9788818,0.003718551481,
508.7892151,0.03981525823,508.7892151,0.003800252918,
508.5996094,0.03989013657,508.5996094,0.003878417425,
508.4099426,0.04001197219,508.4099426,0.0038642094,
508.1823425,0.04010988027,508.1823425,0.003868936794,
507.9926147,0.04016016424,507.9926147,0.003993326332,
507.803009,0.04034391046,507.803009,0.00391200697,
507.6132507,0.04040779918,507.6132507,0.003945990466,
507.3856506,0.04053395987,507.3856506,0.0039555775,
507.1958923,0.04058156163,507.1958923,0.00398844108,
507.0062256,0.04069961235,507.0062256,0.003798764432,
506.7785645,0.04077791423,506.7785645,0.003705888987,
506.5888367,0.04091530293,506.5888367,0.003641642397,
506.3990173,0.04101136699,506.3990173,0.003493971424,
506.2092896,0.04108884186,506.2092896,0.003407292301,
505.9815674,0.04123042524,505.9815674,0.003382716328,
505.7918701,0.04133344814,505.7918701,0.003327464685,
505.6020813,0.0413739346,505.6020813,0.003353524487,
505.4122925,0.04151894525,505.4122925,0.003282548394,
505.1845398,0.04153367132,505.1845398,0.003365993965,
504.9947815,0.04174222425,504.9947815,0.003280383768,
504.8049622,0.04178904742,504.8049622,0.003330255859,
504.6151733,0.04183259979,504.6151733,0.00347006903,
504.3873901,0.0419998616,504.3873901,0.003321517259,
504.1975098,0.0419338569,504.1975098,0.003434974467,
504.0077515,0.04125832021,504.0077515,0.00341733708,
503.7798767,0.04134586081,503.7798767,0.00341853709,
503.5900574,0.04123939201,503.5900574,0.003493371187,
503.4001465,0.04124756157,503.4001465,0.003574247239,
503.2103577,0.04134275764,503.2103577,0.003552167444,
502.9824829,0.04222737998,502.9824829,0.003484786022,
502.7926025,0.04223913327,502.7926025,0.003539327066,
502.6026611,0.0423524715,502.6026611,0.003442306304,
502.4127808,0.04237575829,502.4127808,0.003513804171,
502.184906,0.04242810234,502.184906,0.00356881856,
501.9949951,0.04248413444,501.9949951,0.003478314728,
501.8050537,0.04251182452,501.8050537,0.003593222238,
501.6151428,0.04257769138,501.6151428,0.003606821178,
501.387207,0.04266664013,501.387207,0.003655373352,
501.1972961,0.04270473868,501.1972961,0.003731083823,
501.0072937,0.04273924232,501.0072937,0.003702181624,
500.7793884,0.04281814024,500.7793884,0.003637491958,
500.5894165,0.04281271249,500.5894165,0.003763303859,
500.3994141,0.04291742668,500.3994141,0.003685473232,
500.2094421,0.04303602502,500.2094421,0.003539118217,
499.9814453,0.04307232797,499.9814453,0.003596249968,
499.7914734,0.04314959794,499.7914734,0.003590429435,
499.6013794,0.04323171824,499.6013794,0.00353851798,
499.4114075,0.04332903773,499.4114075,0.003478784347,
499.1833496,0.04335729778,499.1833496,0.003506105859,
498.9933472,0.04341874272,498.9933472,0.003456761362,
498.8032837,0.04349241406,498.8032837,0.003460701555,
498.6132202,0.04354183003,498.6132202,0.003450055607,
498.3851624,0.0435975194,498.3851624,0.003390229773,
498.1950989,0.0435850732,498.1950989,0.003445985261,
498.0050049,0.04370912164,498.0050049,0.003401630791,
497.8150024,0.04368539155,497.8150024,0.003478314728,
497.5868225,0.04369312152,497.5868225,0.003634698922,
497.396759,0.04364523292,497.396759,0.003737872234,
497.206665,0.04369286448,497.206665,0.003786203917,
496.9784851,0.04375888035,496.9784851,0.003775497898,
496.7883911,0.04379171878,496.7883911,0.003822084283,
496.5982361,0.04387175292,496.5982361,0.003805527696,
496.4081421,0.04393453151,496.4081421,0.003790695453,
496.1799316,0.04394558817,496.1799316,0.003851255402,
495.9898071,0.04403157905,495.9898071,0.003830780508,
495.7996216,0.04399497062,495.7996216,0.00387011189,
495.6094666,0.04400015622,495.6094666,0.003849845147,
495.3812561,0.04403490573,495.3812561,0.003824486863,
495.1911011,0.04403728247,495.1911011,0.003804431064,
495.000885,0.04404398426,495.000885,0.003591055982,
494.8106384,0.0440438129,494.8106384,0.003509680973,
494.582428,0.0441147238,494.582428,0.003411727492,
494.3921814,0.04416461289,494.3921814,0.003431660822,
494.2019958,0.04420189932,494.2019958,0.003436853178,
494.0117798,0.0441898033,494.0117798,0.003454935038,
493.7834778,0.04415527359,493.7834778,0.003502165433,
493.5932312,0.04421149939,493.5932312,0.003409405472,
493.4029846,0.0441951938,493.4029846,0.003410423175,
493.212738,0.04423640668,493.212738,0.003417180385,
492.9844055,0.04498291016,492.9844055,0.003500677878,
492.7941284,0.04503973201,492.7941284,0.003552193521,
492.6038818,0.04514662176,492.6038818,0.003496111138,
492.4135132,0.0451159738,492.4135132,0.00362631958,
492.1852112,0.04518551007,492.1852112,0.003676127177,
491.994812,0.04527057335,491.994812,0.003690590151,
491.8045654,0.04539183155,491.8045654,0.003660072107,
491.6142273,0.04547414184,491.6142273,0.003727976698,
491.3858643,0.04553531483,491.3858643,0.003721632296,
491.1954651,0.04557079077,491.1954651,0.003698474495,
491.005127,0.04484044015,491.005127,0.003719204105,
490.8148193,0.04481598735,490.8148193,0.003733068006,
490.5863037,0.04483914748,490.5863037,0.003676336026,
490.3959656,0.04477678239,490.3959656,0.003787091933,
490.2056274,0.04476745799,490.2056274,0.003797772108,
490.0152283,0.04544146359,490.0152283,0.003805449465,
489.7867737,0.04546715692,489.7867737,0.003739960957,
489.596344,0.0454595983,489.596344,0.003781425301,
489.4059448,0.04541453347,489.4059448,0.003818976693,
489.1774292,0.04545281455,489.1774292,0.003850001842,
488.9869995,0.0454043895,488.9869995,0.003965896089,
488.7966003,0.04545008391,488.7966003,0.004013991915,
488.6061096,0.04548797011,488.6061096,0.004043541849,
488.377655,0.04554089159,488.377655,0.004103144165,
488.1871033,0.04557047412,488.1871033,0.004107873887,
487.9966736,0.04559022561,487.9966736,0.004137012176,
487.8062134,0.04562288895,487.8062134,0.004118614364,
487.5776062,0.04563959315,487.5776062,0.004131445661,
487.3871155,0.04564816132,487.3871155,0.004086054396,
487.1966248,0.0456129387,487.1966248,0.004151203204,
487.0061951,0.04565713182,487.0061951,0.004036278464,
486.7775269,0.045624841,486.7775269,0.003893069923,
486.5870056,0.04561794177,486.5870056,0.003797223559,
486.3965149,0.04558717832,486.3965149,0.00374492188,
486.2059631,0.04555926099,486.2059631,0.003751815064,
485.9773254,0.04553186521,485.9773254,0.003712781472,
485.7867737,0.04549242556,485.7867737,0.003732676385,
485.5961914,0.04545842111,485.5961914,0.003713355865,
485.4056396,0.04548848793,485.4056396,0.003751945682,
485.2150574,0.04541191831,485.2150574,0.003900566371,
484.9864197,0.04536602274,484.9864197,0.004013443366,
484.7957764,0.04534269124,484.7957764,0.004131027497,
484.6051941,0.04537156969,484.6051941,0.004188890569,
484.4146423,0.04544088989,484.4146423,0.004286183044,
484.1858826,0.04555293545,484.1858826,0.004274994135,
483.9952698,0.04555052146,483.9952698,0.004378424026,
483.8046265,0.04557188228,483.8046265,0.004395891447,
483.6140137,0.04562650993,483.6140137,0.004361480474,
483.3851929,0.04558447376,483.3851929,0.004400807898,
483.1946106,0.04552726448,483.1946106,0.004483029712,
483.0039063,0.04542585835,483.0039063,0.004556634929,
482.8132629,0.04542982206,482.8132629,0.004496107344,
482.5844727,0.04533725977,482.5844727,0.004578818567,
482.3937988,0.04532513395,482.3937988,0.004591192584,
482.203064,0.04538116977,482.203064,0.004493596498,
482.0124207,0.04458736628,482.0124207,0.004604744259,
481.7835388,0.0445927009,481.7835388,0.004538167268,
481.5928955,0.04458102584,481.5928955,0.004539527465,
481.4020996,0.04454132915,481.4020996,0.004550749436,
481.2114258,0.04449265823,481.2114258,0.004572670907,
480.9824829,0.04444706067,480.9824829,0.00455956487,
480.7918091,0.04442529753,480.7918091,0.004504294135,
480.6010742,0.04442056641,480.6010742,0.004453397822,
480.4102783,0.04439952224,480.4102783,0.004415242467,
480.1813965,0.04439499229,480.1813965,0.004380856175,
479.9906006,0.04432861879,479.9906006,0.004453423899,
479.7998657,0.04431870207,479.7998657,0.004498173483,
479.6090393,0.04431167617,479.6090393,0.004491137806,
479.3800964,0.04429356009,479.3800964,0.004580833018,
479.1893005,0.04433856905,479.1893005,0.004617929924,
478.9984741,0.04438945651,478.9984741,0.004692055285,
478.8076477,0.04438994452,478.8076477,0.004833825864,
478.5787048,0.04436778277,478.5787048,0.005022672005,
478.3878174,0.04437973723,478.3878174,0.005235677585,
478.197052,0.0444544889,478.197052,0.005314415786,
478.0061035,0.04443636537,478.0061035,0.005508426111,
477.7771912,0.04453510419,477.7771912,0.00558225764,
477.5862427,0.04449896887,477.5862427,0.005707165226,
477.3954163,0.04452879727,477.3954163,0.00572657492,
477.2045898,0.04461525008,477.2045898,0.005780165084,
477.0136719,0.04461923614,477.0136719,0.005872015841,
476.7846069,0.04469503462,476.7846069,0.005975328386,
476.593689,0.04475279525,476.593689,0.006000287831,
476.4028015,0.04477549344,476.4028015,0.00593667198,
476.2118835,0.04474048316,476.2118835,0.005908147432,
475.9827881,0.04482210055,475.9827881,0.005693972576,
475.7918701,0.04485329613,475.7918701,0.00552292401,
475.6008911,0.04488682374,475.6008911,0.005264288746,
475.4099731,0.04486670345,475.4099731,0.0051072645,
475.1808167,0.04485327005,475.1808167,0.005029611755,
474.9898376,0.04487270117,474.9898376,0.004935320932,
474.7989197,0.04488211498,474.7989197,0.005045560189,
474.6079407,0.04490197822,474.6079407,0.005069287494,
474.3787537,0.04493522272,474.3787537,0.005063551944,
474.1877441,0.04495810345,474.1877441,0.005074027926,
473.9967651,0.04499157891,473.9967651,0.00501135923,
473.8058472,0.04506129771,473.8058472,0.004992112983,
473.5765686,0.04510500282,473.5765686,0.004979910795,
473.3855896,0.04521317407,473.3855896,0.004853458144,
473.1944885,0.04523911327,473.1944885,0.004818591755,
473.00354,0.04522908852,473.00354,0.004833930638,
472.812439,0.04535154253,472.812439,0.004571807571,
472.5832214,0.04540760815,472.5832214,0.004516221117,
472.3921509,0.04538464546,472.3921509,0.004523335956,
472.2010803,0.04552919045,472.2010803,0.004417229909,
472.0100403,0.04555219039,472.0100403,0.004479603842,
471.7807312,0.04564071447,471.7807312,0.004395787138,
471.5895996,0.04567312077,471.5895996,0.004395290278,
471.3985596,0.04570489749,471.3985596,0.004476046655,
471.2074585,0.04585375264,471.2074585,0.00439427048,
470.9781189,0.04590936378,470.9781189,0.004367572721,
470.7869873,0.04594268277,470.7869873,0.004457556177,
470.5958862,0.04600084201,470.5958862,0.004427376669,
470.4048157,0.04609527439,470.4048157,0.004371651914,
470.2135925,0.04616582766,470.2135925,0.004477406852,
469.984314,0.04621221125,469.984314,0.004474791232,
469.7930908,0.04638111219,469.7930908,0.004379260819,
469.6019592,0.04641910642,469.6019592,0.004447408952,
469.4108276,0.04653033987,469.4108276,0.004496578127,
469.181366,0.04661335796,469.181366,0.004490484018,
468.9902039,0.04669160768,468.9902039,0.004448297899,
468.7989807,0.04682024196,468.7989807,0.004475837573,
468.6078186,0.04689348117,468.6078186,0.004546642303,
468.3783264,0.0470404923,468.3783264,0.004544314463,
468.1871643,0.04706253111,468.1871643,0.004640325904,
467.9959412,0.04710984603,467.9959412,0.004682295024,
467.804718,0.04726076871,467.804718,0.004598936066,
467.6134644,0.04731601477,467.6134644,0.004648724571,
467.3839722,0.04744303972,467.3839722,0.004656940233,
467.1927185,0.04756227881,467.1927185,0.004622325301,
467.0014954,0.04768255726,467.0014954,0.00456851162,
466.8101807,0.04776602983,466.8101807,0.004561605398,
466.5807495,0.04786937311,466.5807495,0.004540887661,
466.3893738,0.04794813693,466.3893738,0.004546354525,
466.1981506,0.04799433425,466.1981506,0.00449289009,
466.006897,0.04809706658,466.006897,0.00445802696,
465.7772827,0.04830786958,465.7772827,0.004436111078,
465.5859985,0.04835491627,465.5859985,0.004478191491,
465.3946533,0.04849402606,465.3946533,0.004493308719,
465.2033691,0.04860790819,465.2033691,0.00445447024,
465.0120239,0.04867102578,465.0120239,0.004489490297,
464.7824402,0.04878437519,464.7824402,0.004552083556,
464.5910645,0.0489282012,464.5910645,0.00453392975,
464.3997192,0.0489667654,464.3997192,0.004618531559,
464.2083435,0.04901573807,464.2083435,0.004674104974,
463.9787292,0.04911897331,463.9787292,0.004709064029,
463.7873535,0.04915421829,463.7873535,0.004745936487,
463.5960083,0.04923069477,463.5960083,0.004840605427,
463.4046326,0.04934413359,463.4046326,0.004856992047,
463.2132263,0.04943044856,463.2132263,0.00482280599,
462.9835205,0.04949458688,462.9835205,0.004846259486,
462.7921448,0.0495621264,462.7921448,0.004807912745,
462.6007385,0.04962657392,462.6007385,0.004761089571,
462.4092712,0.04972728342,462.4092712,0.00468007056,
462.1795959,0.04981762543,462.1795959,0.004664502107,
461.9881287,0.05064778402,461.9881287,0.004592866637,
461.7967224,0.05069682747,461.7967224,0.004527023993,
461.6052551,0.05076996982,461.6052551,0.004483500496,
461.3754883,0.05086809397,461.3754883,0.004430959467,
461.184021,0.05094533786,461.184021,0.004367755726,
460.9925232,0.0510368906,460.9925232,0.004422826227,
460.8011169,0.05105421692,460.8011169,0.004470475949,
460.6095886,0.05115383118,460.6095886,0.004504346289,
460.3797913,0.0512948893,460.3797913,0.004528776743,
460.188324,0.05137873814,460.188324,0.004539946094,
459.9967651,0.05072565749,459.9967651,0.004479159135,
459.8052673,0.05086943135,459.8052673,0.004493674729,
459.5754395,0.05092944577,459.5754395,0.004484128207,
459.3838806,0.05098643899,459.3838806,0.004509472754,
459.1923828,0.05109136924,459.1923828,0.00441987114,
459.0007629,0.05111603066,459.0007629,0.004505366553,
458.8092651,0.05118653551,458.8092651,0.004505235702,
458.5793457,0.05130071566,458.5793457,0.004523100331,
458.3878479,0.05135114491,458.3878479,0.004544288386,
458.196228,0.05138121545,458.196228,0.004555824213,
458.0046692,0.05148565397,458.0046692,0.004586692899,
457.8131104,0.05143340304,457.8131104,0.004693520721,
457.5831604,0.05159690976,457.5831604,0.004577745683,
457.3916016,0.05169822276,457.3916016,0.004625412636,
457.1999817,0.05173129216,457.1999817,0.004622848704,
457.0083313,0.05178314075,457.0083313,0.004616255406,
456.7784119,0.05186332017,456.7784119,0.004648462869,
456.5867615,0.05185515434,456.5867615,0.004714324139,
456.3951111,0.05196898431,456.3951111,0.004630540498,
456.2034912,0.05203492939,456.2034912,0.004620023072,
456.0118408,0.05210905522,456.0118408,0.004653434269,
455.7818298,0.05220505968,455.7818298,0.004571153782,
455.5901489,0.05225903913,455.5901489,0.004491504282,
455.398468,0.0523449108,455.398468,0.004526579287,
455.2068176,0.05242709443,455.2068176,0.004415373318,
454.9767761,0.05247633904,454.9767761,0.004431900568,
454.7851257,0.05251989514,454.7851257,0.004444793798,
454.5933533,0.05263094977,454.5933533,0.004354211502,
454.4017029,0.05265871063,454.4017029,0.004371939693,
454.2099609,0.05278701708,454.2099609,0.004292849451,
453.9798889,0.05283212662,453.9798889,0.004340066575,
453.788147,0.05289621279,453.788147,0.004314810038,
453.596405,0.05296527967,453.596405,0.004371756688,
453.4046326,0.0530577302,453.4046326,0.004277712665,
453.2129211,0.05311825126,453.2129211,0.004208886065,
452.9827881,0.05318592116,452.9827881,0.004254342522,
452.7910156,0.05323730037,452.7910156,0.004258472472,
452.5992737,0.0533339642,452.5992737,0.004161787685,
452.4074707,0.05338747054,452.4074707,0.004167197738,
452.1773376,0.05347099155,452.1773376,0.004124154337,
451.9855347,0.05349045992,451.9855347,0.004123474937,
451.7937622,0.05351075158,451.7937622,0.004170804285,
451.6019287,0.05356228724,451.6019287,0.004114433192,
451.4101257,0.05357988551,451.4101257,0.004201436415,
451.1798706,0.05369056761,451.1798706,0.004181598779,
450.9881287,0.05375114828,450.9881287,0.004131210502,
450.7962646,0.05381396785,450.7962646,0.004093762953,
450.6043701,0.0538781397,450.6043701,0.004101001192,
450.4125671,0.05393244326,450.4125671,0.004054594319,
450.182312,0.05397705361,450.182312,0.004097238649,
449.9904785,0.05402436852,449.9904785,0.004073825199,
449.798584,0.05399666354,449.798584,0.004179743119,
449.60672,0.05400314182,449.60672,0.004202926531,
449.3764648,0.05395882204,449.3764648,0.004306339659,
449.1845093,0.0539149493,449.1845093,0.004395264201,
448.9926147,0.0546595268,448.9926147,0.004407397471,
448.8007813,0.05467943475,448.8007813,0.004553417675,
448.6088257,0.05469719693,448.6088257,0.004611415323,
448.37854,0.0547282882,448.37854,0.004635145422,
448.1865845,0.05474217981,448.1865845,0.004680358805,
447.9946289,0.05476505309,447.9946289,0.004741749261,
447.8027039,0.05486981198,447.8027039,0.004671435803,
447.6107483,0.05492635444,447.6107483,0.004633653909,
447.3804016,0.0549390465,447.3804016,0.004700062331,
447.1884155,0.05494733155,447.1884155,0.0047535263,
446.9963989,0.05423087999,446.9963989,0.004726754036,
446.8044739,0.05428458378,446.8044739,0.004758603405,
446.6124573,0.05432489142,446.6124573,0.004731255118,
446.3821106,0.05441868678,446.3821106,0.004722907208,
446.1900635,0.05439920351,446.1900635,0.004837019369,
445.9980774,0.05445260555,445.9980774,0.004869373981,
445.8060913,0.05447003618,445.8060913,0.004862174857,
445.5756531,0.05452203751,445.5756531,0.00489366753,
445.3836365,0.05450642481,445.3836365,0.004943437409,
445.1915894,0.05456482992,445.1915894,0.004904584493,
444.9995728,0.05464109406,444.9995728,0.004925005138,
444.8075256,0.05469100177,444.8075256,0.004881913308,
444.5770264,0.05469355732,444.5770264,0.004938698374,
444.3849792,0.05472324044,444.3849792,0.004938200582,
444.1929321,0.05475004762,444.1929321,0.004912909586,
444.0008545,0.05484610796,444.0008545,0.004953910131,
443.8087463,0.05482754484,443.8087463,0.005012616515,
443.5782471,0.05494351313,443.5782471,0.004932728596,
443.3861084,0.05496804044,443.3861084,0.004888352938,
443.1940308,0.05498804897,443.1940308,0.004896180704,
443.0018921,0.05576414242,443.0018921,0.004871808458,
442.8097534,0.05581209064,442.8097534,0.004832988139,
442.5791931,0.05585159361,442.5791931,0.0048364955,
442.3871155,0.05591038615,442.3871155,0.00478155585,
442.1949768,0.0559194833,442.1949768,0.004904348869,
442.0028381,0.05594719201,442.0028381,0.004937232006,
441.8106995,0.05604457483,441.8106995,0.004843118135,
441.5801086,0.05612775683,441.5801086,0.004891703837,
441.38797,0.05618879572,441.38797,0.004938750528,
441.1957703,0.05626401678,441.1957703,0.005024950486,
441.0035706,0.05559735,441.0035706,0.005013244692,
440.8114014,0.05559255183,440.8114014,0.005202012137,
440.5807495,0.05564307049,440.5807495,0.005240524653,
440.3885193,0.05562385917,440.3885193,0.005381399766,
440.1963196,0.05567011237,440.1963196,0.005427398719,
440.0041504,0.05567014217,440.0041504,0.005565896165,
439.8119202,0.05566266924,439.8119202,0.005688622128,
439.5812073,0.05571101978,439.5812073,0.005741893314,
439.3889771,0.05571263656,439.3889771,0.005896890536,
439.1967468,0.05567014217,439.1967468,0.006040603854,
439.0045166,0.05571878701,439.0045166,0.006015327293,
438.8122253,0.05570369214,438.8122253,0.006137760356,
438.581543,0.05568612367,438.581543,0.006224960089,
438.3893127,0.05570101365,438.3893127,0.006248725578,
438.1970215,0.05570816249,438.1970215,0.006342855748,
438.0046692,0.05571596324,438.0046692,0.006362057291,
437.8123779,0.05573061854,437.8123779,0.00645093061,
437.581665,0.05584202707,437.581665,0.006436401978,
437.3893127,0.05585671589,437.3893127,0.006476863287,
437.1970215,0.05593355745,437.1970215,0.006440579426,
437.0047607,0.05595684797,437.0047607,0.006450563204,
436.7739563,0.05604675785,436.7739563,0.006431515329,
436.5815735,0.05613217503,436.5815735,0.006451824214,
436.3892517,0.05623735115,436.3892517,0.006426681299,
436.1969299,0.0562752448,436.1969299,0.006422871724,
436.0045471,0.05638452247,436.0045471,0.006521874573,
435.8121948,0.05644126609,435.8121948,0.006543633062,
435.5813293,0.05649639294,435.5813293,0.006635408849,
435.3889465,0.05655394495,435.3889465,0.006723680999,
435.1965942,0.05665441602,435.1965942,0.00672149891,
435.0042114,0.05670741946,435.0042114,0.006734512746,
434.8117981,0.05677131191,434.8117981,0.006740033627,
434.5809631,0.05687924102,434.5809631,0.006721025798,
434.3885193,0.05686431006,434.3885193,0.006727151573,
434.1961365,0.05696075037,434.1961365,0.006675783545,
434.0037231,0.05692855269,434.0037231,0.006640665699,
433.8112793,0.05693501607,433.8112793,0.0065205344,
433.5803528,0.05697666109,433.5803528,0.006512913853,
433.3879089,0.05686014891,433.3879089,0.00657803379,
433.1954346,0.05673544109,433.1954346,0.006768270861,
433.0030518,0.05668370426,433.0030518,0.006894598715,
432.8105774,0.05658063293,432.8105774,0.007218237966,
432.5795593,0.05647664145,432.5795593,0.007513778284,
432.3871155,0.05651753396,432.3871155,0.007468506228,
432.1946411,0.05637037382,432.1946411,0.007782532834,
432.0021667,0.05637927726,432.0021667,0.007890334353,
431.8096313,0.05638829619,431.8096313,0.007901378907,
431.5786438,0.05631638318,431.5786438,0.008249961771,
431.3861389,0.05638643727,431.3861389,0.008321648464,
431.193634,0.05640144274,431.193634,0.008498317562,
431.0011292,0.0564224571,431.0011292,0.008685806766,
430.8085938,0.05648961291,430.8085938,0.008893906139,
430.5775757,0.05648807809,430.5775757,0.009178136475,
430.3849792,0.05647917464,430.3849792,0.009445647709,
430.1924438,0.05656633154,430.1924438,0.009628385305,
429.999939,0.05651016161,429.999939,0.009865825996,
429.8073425,0.05653861538,429.8073425,0.01008201577,
429.5762634,0.05654913932,429.5762634,0.01044282783,
429.383667,0.0565914847,429.383667,0.01061367709,
429.1910706,0.05654793233,429.1910706,0.01100599393,
428.9985046,0.0566092357,428.9985046,0.01131212059,
428.8059082,0.05658959597,428.8059082,0.0115912389,
428.5747375,0.05667004734,428.5747375,0.01174051967,
428.3821106,0.05662855133,428.3821106,0.01208783314,
428.1895447,0.05663524568,428.1895447,0.01245066244,
427.9969177,0.05740483478,427.9969177,0.01287381351,
427.8042908,0.05748860165,427.8042908,0.01332652383,
427.6116333,0.05746085569,427.6116333,0.01382978447,
427.3804932,0.05748945847,427.3804932,0.0142327752,
427.1878662,0.05751215294,427.1878662,0.01459622383,
426.9952087,0.05752078071,426.9952087,0.01503679901,
426.8025208,0.05756768212,426.8025208,0.01552208606,
426.6098938,0.05756567419,426.6098938,0.01630778052,
426.3786316,0.05758358538,426.3786316,0.01704697497,
426.1860046,0.05760066956,426.1860046,0.01765589789,
425.9932861,0.05767063424,425.9932861,0.01830622926,
425.8006287,0.0576463677,425.8006287,0.01912486926,
425.6078796,0.05769186094,425.6078796,0.01976442896,
425.3766174,0.05772674829,425.3766174,0.02077529579,
425.1838989,0.05774717778,425.1838989,0.02150924504,
424.9911804,0.05772500485,424.9911804,0.02224024385,
424.7984619,0.05776063353,424.7984619,0.02302231081,
424.6057434,0.05777346343,424.6057434,0.02401215397,
424.3744202,0.05784343183,424.3744202,0.02516809478,
424.1816406,0.05784665421,424.1816406,0.02631722018,
423.9889221,0.05788034201,423.9889221,0.02729975246,
423.7961426,0.05784050375,423.7961426,0.02817956544,
423.6033936,0.05790684372,423.6033936,0.02887955494,
423.410675,0.05790403113,423.410675,0.02988326922,
423.1792908,0.05790403113,423.1792908,0.03118772618,
422.9865112,0.05790906027,422.9865112,0.03277925029,
422.7937012,0.05792029947,422.7937012,0.03419667482,
422.6008911,0.05795904994,422.6008911,0.0351951085,
422.4081116,0.05783544481,422.4081116,0.03636424243,
422.1766968,0.05791047961,422.1766968,0.0377452895,
421.9838867,0.05792878941,421.9838867,0.03872764483,
421.7910767,0.05800579116,421.7910767,0.04032010958,
421.5982361,0.05805461109,421.5982361,0.04201377556,
421.405365,0.0581481792,421.405365,0.04354589432,
421.1739502,0.05814788118,421.1739502,0.04527809843,
420.9811096,0.05739461258,420.9811096,0.04685905203,
420.7882385,0.05740793794,420.7882385,0.04863877222,
420.5953674,0.05738829076,420.5953674,0.05056634545,
420.4025269,0.05739281327,420.4025269,0.05244812369,
420.2096252,0.05743095279,420.2096252,0.05407936499,
419.9781494,0.05744563788,419.9781494,0.05612860993,
419.7853088,0.05746620148,419.7853088,0.0581737794,
419.5923767,0.05748352036,419.5923767,0.06022080407,
419.3995056,0.05748065189,419.3995056,0.06269074231,
419.206543,0.0574664399,419.206543,0.06511712819,
418.9750977,0.05749566481,418.9750977,0.06746771932,
418.7821045,0.05749176443,418.7821045,0.06926202774,
418.5892029,0.05749604851,418.5892029,0.07128454,
418.3962402,0.05758559331,418.3962402,0.07341171801,
418.2033081,0.05755633488,418.2033081,0.07608038187,
418.0103455,0.05755166337,418.0103455,0.07971677184,
417.7788086,0.05761716142,417.7788086,0.08300699294,
417.5858459,0.05760235339,417.5858459,0.08552583307,
417.3928833,0.05756014585,417.3928833,0.0880195573,
417.1998596,0.05758541822,417.1998596,0.09079581499,
417.006897,0.05760829523,417.006897,0.09326885641,
416.7752991,0.05760040134,416.7752991,0.09831338376,
416.5822754,0.05762721226,416.5822754,0.1018571854,
416.3893127,0.05756756663,416.3893127,0.1051413417,
416.1962891,0.05763912573,416.1962891,0.1083627045,
416.0032654,0.05762186274,416.0032654,0.1122390702,
415.8102112,0.05770099908,415.8102112,0.1154694706,
415.5786133,0.05766685307,415.5786133,0.121101357,
415.3855896,0.05769484863,415.3855896,0.1245723143,
415.1925354,0.05776098743,415.1925354,0.1281479001,
414.9994812,0.05771693215,414.9994812,0.1316877156,
414.8063965,0.0577518791,414.8063965,0.1357498467,
414.5747681,0.05776101723,414.5747681,0.1407170445,
414.3816833,0.0578234382,414.3816833,0.1461736858,
414.1885986,0.05783535913,414.1885986,0.1504969597,
413.9955139,0.05781447887,413.9955139,0.1542132497,
413.8024597,0.05780643597,413.8024597,0.157744661,
413.6093445,0.05784280971,413.6093445,0.1614601463,
413.377655,0.05784881487,413.377655,0.166644603,
413.1844788,0.05788252875,413.1844788,0.1723398417,
412.9913635,0.05792662874,412.9913635,0.1784573942,
412.7982788,0.05789619312,412.7982788,0.1829533726,
412.6051636,0.0579206869,412.6051636,0.1870167702,
412.3733521,0.05796384439,412.3733521,0.1922928244,
412.1802368,0.05797354504,412.1802368,0.1966978312,
411.9870911,0.05791991577,411.9870911,0.2021131068,
411.7939148,0.05795881525,411.7939148,0.2086124271,
411.6008301,0.05800416693,411.6008301,0.214005053,
411.4076233,0.05798360333,411.4076233,0.2186028808,
411.1758728,0.05802916363,411.1758728,0.2244373858,
410.9826355,0.05801108852,410.9826355,0.2291215956,
410.7894287,0.05808153749,410.7894287,0.2342761159,
410.5962219,0.05804931372,410.5962219,0.2398442924,
410.4030762,0.05813950673,410.4030762,0.2442768663,
410.2098694,0.05810571089,410.2098694,0.2486035973,
409.9779663,0.05807274953,409.9779663,0.2538726032,
409.7848206,0.05802339688,409.7848206,0.2597225904,
409.5915527,0.05807121098,409.5915527,0.2639846802,
409.3983154,0.05797325075,409.3983154,0.2701205909,
409.2051086,0.05796993524,409.2051086,0.2745007277,
408.9732056,0.05801996216,408.9732056,0.2786544561,
408.7799377,0.05804321915,408.7799377,0.2820371091,
408.586731,0.05798041075,408.586731,0.2859707773,
408.3934326,0.05801478773,408.3934326,0.2898257077,
408.2001648,0.05803111941,408.2001648,0.2952932119,
408.0069275,0.05804617703,408.0069275,0.2997444868,
407.7749634,0.05797331035,407.7749634,0.303811878,
407.5817261,0.05799505487,407.5817261,0.3064822555,
407.3883972,0.05801342428,407.3883972,0.3094672561,
407.1950989,0.05807067826,407.1950989,0.3121277392,
407.00177,0.05805126578,407.00177,0.3155881464,
406.8084412,0.05801809952,406.8084412,0.3190745413,
406.5764771,0.05806550011,406.5764771,0.3218716979,
406.3831177,0.05811610073,406.3831177,0.3240522146,
406.1897888,0.05804233253,406.1897888,0.3260523975,
405.9964905,0.0581058301,405.9964905,0.3277201951,
405.8031311,0.05809325352,405.8031311,0.3294327259,
405.6097717,0.05813119188,405.6097717,0.3307653368,
405.3777771,0.05809008703,405.3777771,0.3318973184,
405.1843872,0.05809792876,405.1843872,0.3325171769,
404.9909973,0.05812509358,404.9909973,0.3332056999,
404.7976685,0.05813746527,404.7976685,0.3336452246,
404.604248,0.05814220011,404.604248,0.3338044882,
404.3722229,0.05809097737,404.3722229,0.3335033655,
404.178833,0.05807328224,404.178833,0.3331018388,
403.9854431,0.05805804208,403.9854431,0.3325971365,
403.7920227,0.05803147331,403.7920227,0.3318839371,
403.5986023,0.05800398812,403.5986023,0.3308457136,
403.4051514,0.05796748027,403.4051514,0.3297301233,
403.1730652,0.05792435259,403.1730652,0.3270951211,
402.9796143,0.05791207775,402.9796143,0.325306654,
402.7861633,0.05789702386,402.7861633,0.3234985769,
402.5927124,0.05777763575,402.5927124,0.3218530118,
402.399292,0.05793849379,402.399292,0.3192943931,
402.2058105,0.05784934759,402.2058105,0.3174385428,
401.9736633,0.05776985735,401.9736633,0.3131051362,
401.7802124,0.05775315315,401.7802124,0.3095808625,
401.586731,0.05776681378,401.586731,0.3064844012,
401.3932495,0.05772609636,401.3932495,0.3034053743,
401.1997681,0.05769925192,401.1997681,0.299847424,
401.0062561,0.05771270394,401.0062561,0.2963162661,
400.7740479,0.05772929266,400.7740479,0.2915431559,
400.5805359,0.05769372359,400.5805359,0.2877339125,
400.3870239,0.05767646059,400.3870239,0.2844823599,
400.1935425,0.05774239078,400.1935425,0.2811266482,
400,0.05763939023,400,0.2774243355,
399.8064575,0.05761716142,399.8064575,0.273241818,
399.5742188,0.05757312104,399.5742188,0.2677480876,
399.3806763,0.05758494511,399.3806763,0.2634977698,
399.1871033,0.0575434193,399.1871033,0.2600622773,
398.9935303,0.0575000681,398.9935303,0.2571110725,
398.8000183,0.05746437237,398.8000183,0.2538671196,
398.6064453,0.05742841214,398.6064453,0.2502571642,
398.3741455,0.05736297369,398.3741455,0.2449869215,
398.1805725,0.05738008022,398.1805725,0.2399768382,
397.986969,0.05739231035,397.986969,0.2360943258,
397.793396,0.05727763847,397.793396,0.2331399322,
397.5997925,0.05724972859,397.5997925,0.2299781591,
397.4061584,0.05726316571,397.4061584,0.2264672667,
397.1738281,0.0572210215,397.1738281,0.2227290124,
396.9801941,0.05714911968,396.9801941,0.2184026092,
396.7865906,0.05712281168,396.7865906,0.2145764232,
396.5929565,0.05707031861,396.5929565,0.2117169946,
396.3993225,0.05706261471,396.3993225,0.2088088989,
396.205719,0.05707203224,396.205719,0.2055042088,
395.9732971,0.05704534426,395.9732971,0.2026430219,
395.7796631,0.0570105128,395.7796631,0.1998364031,
395.5859985,0.05699661002,395.5859985,0.197614789,
395.3923035,0.05706199631,395.3923035,0.1957051456,
395.1986389,0.05703409761,395.1986389,0.1940444857,
395.0049744,0.05701851472,395.0049744,0.1922340691,
394.7725525,0.05697244033,394.7725525,0.1902448982,
394.5788269,0.0570255667,394.5788269,0.1879858673,
394.3851318,0.05694788322,394.3851318,0.1864136606,
394.1914368,0.05692076311,394.1914368,0.1852661967,
393.9977417,0.05690739304,393.9977417,0.1841367036,
393.8039856,0.05687811971,393.8039856,0.183107242,
393.5715332,0.05683138222,393.5715332,0.1818369776,
393.3778076,0.0567997843,393.3778076,0.1807029396,
393.1840515,0.0567125231,393.1840515,0.1799815744,
392.9903564,0.05675228685,392.9903564,0.1794968992,
392.7966003,0.05669883639,392.7966003,0.1792232394,
392.6028442,0.05666019768,392.6028442,0.1791133434,
392.4090576,0.05669986829,392.4090576,0.1789978594,
392.1765442,0.05673022196,392.1765442,0.1789143384,
391.9827881,0.0567792505,391.9827881,0.1789131314,
391.7890015,0.05674963072,391.7890015,0.1792376339,
391.5952148,0.05669025332,391.5952148,0.1795649529,
391.4014587,0.05670851097,391.4014587,0.1799512506,
391.2076416,0.05657399818,391.2076416,0.1806084067,
390.9750671,0.05652487278,390.9750671,0.1814394146,
390.7812805,0.05647012591,390.7812805,0.1822761893,
390.5874329,0.05645458773,390.5874329,0.1831465811,
390.3936157,0.05640329793,390.3936157,0.1840084046,
390.1997986,0.05642879382,390.1997986,0.1849020869,
390.0059509,0.05636963621,390.0059509,0.1862385422,
389.7733459,0.05633450672,389.7733459,0.1876147687,
389.5795288,0.05632634461,389.5795288,0.1893542856,
389.3856506,0.05634001642,389.3856506,0.190546751,
389.191803,0.05625959858,389.191803,0.1918142587,
388.9979553,0.05631089956,388.9979553,0.1929637343,
388.8041077,0.05629428104,388.8041077,0.1942460239,
388.5714111,0.0562822558,388.5714111,0.1959711015,
388.3775635,0.05623331293,388.3775635,0.1980026513,
388.1836853,0.05623611435,388.1836853,0.1997735351,
387.9897461,0.056271974,387.9897461,0.2010628432,
387.7958984,0.05630851537,387.7958984,0.2021861672,
387.6019592,0.05629687384,387.6019592,0.2037101388,
387.4080505,0.0562710315,387.4080505,0.2051044703,
387.175354,0.05623708665,387.175354,0.2073261142,
386.9814148,0.05630031973,386.9814148,0.2092305422,
386.7875061,0.05626557767,386.7875061,0.2109903395,
386.5935669,0.05619566143,386.5935669,0.2125674933,
386.3996277,0.0562781617,386.3996277,0.2138626724,
386.2056885,0.05626605079,386.2056885,0.2154189944,
385.9729004,0.05623514205,385.9729004,0.2173587233,
385.7789612,0.05628853291,385.7789612,0.2188737392,
385.585022,0.05630883947,385.585022,0.2200683206,
385.3910522,0.05629761145,385.3910522,0.2211498618,
385.197052,0.05629150942,385.197052,0.2223892212,
385.0030823,0.05633718893,385.0030823,0.223677367,
384.809082,0.05636512861,384.809082,0.2247087359,
384.5762939,0.05643955618,384.5762939,0.2260491252,
384.3822937,0.0564862825,384.3822937,0.2268783897,
384.1882629,0.05651393533,384.1882629,0.2274541557,
383.9942932,0.05651461333,383.9942932,0.2280232906,
383.8002625,0.0566489622,383.8002625,0.2286978215,
383.6062317,0.05663701519,383.6062317,0.2291708738,
383.3733826,0.05672957376,383.3733826,0.2299240977,
383.1793518,0.05673865601,383.1793518,0.2304441482,
382.985321,0.05675588548,382.985321,0.2306018472,
382.7912598,0.0567907542,382.7912598,0.230757758,
382.5971985,0.05689302087,382.5971985,0.2309076935,
382.4031677,0.05695307627,382.4031677,0.2309353501,
382.2090759,0.0570015423,382.2090759,0.2309252173,
381.9762268,0.05712198466,381.9762268,0.2308542132,
381.782135,0.05714985728,381.782135,0.230664894,
381.5880127,0.05726275221,381.5880127,0.2303902954,
381.3939514,0.05737585574,381.3939514,0.2299843132,
381.1998291,0.0574410297,381.1998291,0.2297363728,
381.0057678,0.057510674,381.0057678,0.2292436659,
380.7728271,0.05768846348,380.7728271,0.2285625041,
380.5787048,0.05779020116,380.5787048,0.2281311303,
380.3845825,0.05787865445,380.3845825,0.2275595814,
380.1904602,0.05795748159,380.1904602,0.2270706147,
379.9963379,0.058141727,379.9963379,0.2262956351,
379.8021851,0.05830177292,379.8021851,0.2254893184,
379.6080627,0.05838778242,379.6080627,0.2247531712,
379.375061,0.05853464827,379.375061,0.2240327746,
379.1809082,0.05865999311,379.1809082,0.2235903293,
378.9867249,0.05874506757,378.9867249,0.2231808007,
378.792572,0.0588981621,378.792572,0.2226175368,
378.5984192,0.05902376026,378.5984192,0.2222471684,
378.4042358,0.05928844586,378.4042358,0.2215852439,
378.1712036,0.05942175537,378.1712036,0.2212192565,
377.9770203,0.0595859848,377.9770203,0.2208231837,
377.7828064,0.05976777151,377.7828064,0.2205324471,
377.588623,0.05982492864,377.588623,0.2203197479,
377.3944092,0.06002090126,377.3944092,0.2199976444,
377.2001953,0.06016002595,377.2001953,0.2196785361,
377.0059814,0.06032917649,377.0059814,0.2192278057,
376.7728882,0.06036769599,376.7728882,0.2190926969,
376.5787048,0.0605051741,376.5787048,0.2189189345,
376.3844604,0.06062412262,376.3844604,0.2186739296,
376.1901855,0.06061730906,376.1901855,0.2187563479,
375.9959412,0.05998595059,375.9959412,0.2183065712,
375.8016968,0.0602642782,375.8016968,0.2182680964,
375.6074524,0.06030597538,375.6074524,0.2182693034,
375.3743286,0.06042299792,375.3743286,0.2182678878,
375.1800537,0.0604874976,375.1800537,0.2183803469,
374.9857788,0.06065213308,374.9857788,0.2184805572,
374.7915039,0.06075689197,374.7915039,0.2186935842,
374.5971985,0.0608603023,374.5971985,0.2187867612,
374.4028625,0.06095483527,374.4028625,0.2189403176,
374.2086182,0.06092579663,374.2086182,0.2191245556,
373.9754333,0.06104462221,373.9754333,0.2192477435,
373.7811279,0.06115567312,373.7811279,0.2195135951,
373.5868225,0.06115463004,373.5868225,0.219785139,
373.3924866,0.06125661731,373.3924866,0.2200992703,
373.1981506,0.061449036,373.1981506,0.2203101218,
373.0038147,0.06148887798,373.0038147,0.2204253078,
372.7706299,0.06157260016,372.7706299,0.2209218442,
372.5762634,0.06159741804,372.5762634,0.2211286575,
372.3818665,0.06182171404,372.3818665,0.221261695,
372.1875305,0.06189806387,372.1875305,0.2217934728,
371.9931946,0.06210558116,371.9931946,0.2221975625,
371.7988281,0.06234014779,371.7988281,0.2222909629,
371.6044312,0.06244441867,371.6044312,0.222622335,
371.3711548,0.06249496341,371.3711548,0.2232536823,
371.1767883,0.06259670109,371.1767883,0.2234617919,
370.9823914,0.06271778047,370.9823914,0.2240402848,
370.7879639,0.06287433952,370.7879639,0.2241404504,
370.5935974,0.06298673153,370.5935974,0.2245286256,
370.3992004,0.0629978627,370.3992004,0.2248147577,
370.2047729,0.0630807355,370.2047729,0.2250974625,
369.9714661,0.06317407638,369.9714661,0.2254821807,
369.7770081,0.06324028224,369.7770081,0.2259350121,
369.5826111,0.06333383173,369.5826111,0.226072222,
369.3881531,0.06339226663,369.3881531,0.2263503373,
369.1936951,0.06355794519,369.1936951,0.2264874578,
368.9992981,0.06363892555,368.9992981,0.2266089618,
368.8048401,0.06367893517,368.8048401,0.226722911,
368.5714417,0.06391561776,368.5714417,0.2268195599,
368.3770142,0.06399350613,368.3770142,0.2268265486,
368.1825256,0.06419271976,368.1825256,0.2266936004,
367.9880371,0.06425355375,367.9880371,0.2265673131,
367.7935486,0.06431812048,367.7935486,0.2265068293,
367.5990295,0.06447862834,367.5990295,0.2261844128,
367.4045715,0.06455466896,367.4045715,0.225844264,
367.1711426,0.06478434056,367.1711426,0.2250913382,
366.9766235,0.06492235512,366.9766235,0.2243428677,
366.7821655,0.06504041702,366.7821655,0.2235974371,
366.587616,0.06510233134,366.587616,0.2228185982,
366.3930664,0.06522049755,366.3930664,0.2217503786,
366.1985779,0.06531336904,366.1985779,0.2207781523,
366.0040283,0.06539849192,366.0040283,0.2193910033,
365.7705688,0.06552125514,365.7705688,0.2178924084,
365.5760193,0.06565640122,365.5760193,0.2165426016,
365.3814697,0.0656921193,365.3814697,0.2153202146,
365.1869202,0.06580547988,365.1869202,0.213569656,
364.9923706,0.06672903895,364.9923706,0.2121759802,
364.79776,0.06687295437,364.79776,0.2100591809,
364.6032104,0.06688445807,364.6032104,0.2081229985,
364.3697205,0.06702277809,364.3697205,0.2062097192,
364.1751404,0.06716748327,364.1751404,0.2045758963,
363.9805298,0.06714394689,363.9805298,0.2028148025,
363.7859192,0.06720843166,363.7859192,0.2006635964,
363.5913696,0.06726717949,363.5913696,0.1979782432,
363.3967285,0.0673424378,363.3967285,0.1950282902,
363.2021179,0.06742139906,363.2021179,0.1930449605,
363.0074768,0.06744365394,363.0074768,0.1915984899,
362.7739563,0.06751604378,362.7739563,0.1898256093,
362.5792847,0.06748559326,362.5792847,0.1884517968,
362.3846741,0.06757930666,362.3846741,0.1868872643,
362.190033,0.06777240336,362.190033,0.1847121716,
361.9953613,0.06789599359,361.9953613,0.1826754361,
361.8007202,0.06794881076,361.8007202,0.1809572279,
361.6060791,0.06798159331,361.6060791,0.1791249663,
361.372467,0.06799782068,361.372467,0.176566273,
361.1777954,0.06800587475,361.1777954,0.1749263853,
360.9830933,0.068081595,360.9830933,0.1728076935,
360.7884521,0.06807678193,360.7884521,0.1710744351,
360.59375,0.06812886149,360.59375,0.1695836335,
360.3990784,0.06825167686,360.3990784,0.1681285352,
360.2043457,0.06830184162,360.2043457,0.1664391011,
359.9707031,0.0683381632,359.9707031,0.1644782275,
359.7760315,0.06839391589,359.7760315,0.1623645574,
359.5812988,0.06838373095,359.5812988,0.1606835574,
359.3865662,0.06837506592,359.3865662,0.1593470722,
359.191864,0.06843145937,359.191864,0.1581027359,
358.9971313,0.06839954853,358.9971313,0.1569458842,
358.8023682,0.06845285743,358.8023682,0.1557042152,
358.6076355,0.06851422787,358.6076355,0.1543697119,
358.3739319,0.06862126291,358.3739319,0.1529915333,
358.1791992,0.06865176558,358.1791992,0.1522177756,
357.9844055,0.06878100336,357.9844055,0.1514949799,
357.7896423,0.0689316988,357.7896423,0.1506455392,
357.5948792,0.06898133457,357.5948792,0.1498557478,
357.400116,0.06915692985,357.400116,0.1486804485,
357.2053223,0.06911835074,357.2053223,0.1473237127,
356.9715576,0.0691691339,356.9715576,0.1460376084,
356.7767944,0.06920814514,356.7767944,0.1451164335,
356.5819702,0.06923606992,356.5819702,0.144392252,
356.387207,0.06921336055,356.387207,0.1436122358,
356.1923523,0.06934717298,356.1923523,0.1428947002,
355.9975586,0.06946200877,355.9975586,0.1420162916,
355.8027344,0.06952309608,355.8027344,0.1412841082,
355.5689392,0.06960494816,355.5689392,0.1406128407,
355.374115,0.06958975643,355.374115,0.1399602592,
355.1792908,0.06965991855,355.1792908,0.1392447501,
354.984436,0.06976723671,354.984436,0.1386590451,
354.7896118,0.0698704198,354.7896118,0.1378530264,
354.5947266,0.06989577413,354.5947266,0.1374130547,
354.3999023,0.06989407539,354.3999023,0.1369771957,
354.2050476,0.06992183626,354.2050476,0.1366849244,
353.9711609,0.06922411174,353.9711609,0.135924682,
353.7763367,0.06932673603,353.7763367,0.1354003847,
353.5814209,0.06940951943,353.5814209,0.134713009,
353.3865356,0.06952401251,353.3865356,0.1340472549,
353.1916504,0.06947297603,353.1916504,0.1336009204,
352.9967346,0.06951699406,352.9967346,0.133180365,
352.8018494,0.06957526505,352.8018494,0.1328290552,
352.6069336,0.0696016103,352.6069336,0.1323314458,
352.3730164,0.06973483413,352.3730164,0.1316822022,
352.1781311,0.06979231536,352.1781311,0.130935058,
351.9832153,0.0698665604,351.9832153,0.1304114759,
351.788269,0.06988139451,351.788269,0.1299510151,
351.5933228,0.06996632367,351.5933228,0.1294040233,
351.398407,0.07001081854,351.398407,0.1288217902,
351.2034607,0.07002481073,351.2034607,0.1282663047,
350.9695129,0.07012218237,350.9695129,0.1274302304,
350.7745361,0.07019169629,350.7745361,0.126767993,
350.5795898,0.07023919374,350.5795898,0.1262663603,
350.384613,0.07033013552,350.384613,0.125679329,
350.1896362,0.07032943517,350.1896362,0.1249785349,
349.9946594,0.07034254819,349.9946594,0.1243482456,
349.7996826,0.07049944997,349.7996826,0.1232251897,
349.6047058,0.07050983608,349.6047058,0.1225554645,
349.370697,0.07059656084,349.370697,0.1216622964,
349.1757202,0.07068937272,349.1757202,0.1208834872,
348.9806824,0.07074475288,348.9806824,0.1200482473,
348.7857056,0.07080297917,348.7857056,0.1190791354,
348.5906677,0.07082028687,348.5906677,0.1178294867,
348.3956299,0.0707911253,348.3956299,0.1166033,
348.2006531,0.07090268284,348.2006531,0.1154850051,
348.0056152,0.0709425509,348.0056152,0.1145705581,
347.7715454,0.07103137672,347.7715454,0.1132872626,
347.5765381,0.07109969854,347.5765381,0.1122034043,
347.3814392,0.07119554281,347.3814392,0.1109317169,
347.1864014,0.07120926678,347.1864014,0.1093325093,
346.9913635,0.07209788263,346.9913635,0.1081383824,
346.7962646,0.07217851281,346.7962646,0.1069646478,
346.6011963,0.0722682327,346.6011963,0.1057466865,
346.4061584,0.07240032405,346.4061584,0.1043039188,
346.1720276,0.07246223092,346.1720276,0.1027595252,
345.9769897,0.07256314158,345.9769897,0.1013070196,
345.7818604,0.07264361531,345.7818604,0.1001317203,
345.5867615,0.07264146954,345.5867615,0.09907597303,
345.3916626,0.07278818637,345.3916626,0.09783537686,
345.1965332,0.07285614312,345.1965332,0.09662942588,
345.0014343,0.07203285396,345.0014343,0.09544535726,
344.8063354,0.07220216841,344.8063354,0.09370745718,
344.5721741,0.0721462369,344.5721741,0.09245450795,
344.3770752,0.0721719414,344.3770752,0.09150082618,
344.1819153,0.07227333635,344.1819153,0.09055382013,
343.9867554,0.07239943743,343.9867554,0.0894747898,
343.7916565,0.07233855873,343.7916565,0.08829785883,
343.5964661,0.07239222527,343.5964661,0.0868197456,
343.4013367,0.07243488729,343.4013367,0.08518917114,
343.2061462,0.07252994925,343.2061462,0.08403295279,
342.9719543,0.07252719998,342.9719543,0.08303598315,
342.776825,0.07252915949,342.776825,0.08211074024,
342.5816345,0.07260839641,342.5816345,0.0811900571,
342.3864441,0.07262057066,342.3864441,0.08014251292,
342.1912537,0.07267302275,342.1912537,0.07886151969,
341.9960632,0.07283146679,341.9960632,0.07783523202,
341.8008728,0.07281851768,341.8008728,0.07708932459,
341.6056519,0.07292114198,341.6056519,0.07635595649,
341.3714294,0.07298272103,341.3714294,0.07528178394,
341.1762085,0.07300271839,341.1762085,0.07444067299,
340.9809875,0.07316413522,340.9809875,0.07346818596,
340.7857666,0.07311662287,340.7857666,0.07278861851,
340.5905151,0.07324869931,340.5905151,0.0720865801,
340.3953247,0.07332225144,340.3953247,0.07143818587,
340.2000732,0.07345276326,340.2000732,0.07052472234,
340.0048218,0.07341051847,340.0048218,0.0700044632,
339.7705383,0.07349405438,339.7705383,0.06893048435,
339.5752563,0.07362977415,339.5752563,0.06831992418,
339.3800354,0.07363139838,339.3800354,0.06792389601,
339.1847229,0.07373191416,339.1847229,0.06746530533,
338.9894714,0.0737163648,338.9894714,0.06706234813,
338.79422,0.07384376973,338.79422,0.0664081648,
338.598938,0.07385819405,338.598938,0.06590862572,
338.4036255,0.07400492579,338.4036255,0.06511995196,
338.169281,0.07395759225,338.169281,0.06458061934,
337.9739685,0.07414592803,337.9739685,0.06419875473,
337.7786865,0.0741821602,337.7786865,0.06362327933,
337.583374,0.07422245294,337.583374,0.06316982955,
337.3880615,0.0743798092,337.3880615,0.06244152039,
337.1927185,0.07444088906,337.1927185,0.06174907461,
336.9974365,0.07452044636,336.9974365,0.0612015985,
336.8020935,0.07451863587,336.8020935,0.06078937277,
336.5677185,0.07469177991,336.5677185,0.06007672474,
336.3723755,0.07475271821,336.3723755,0.0596383065,
336.177002,0.07484278828,336.177002,0.05917721614,
335.9816589,0.0749611482,335.9816589,0.05859795213,
335.7862854,0.07499166578,335.7862854,0.05820734054,
335.5909424,0.07503879815,335.5909424,0.0579100363,
335.3955994,0.07520648837,335.3955994,0.05744675919,
335.2002258,0.07525358349,335.2002258,0.05697244033,
335.0048218,0.07620882988,335.0048218,0.05660779029,
334.7703857,0.07636141777,334.7703857,0.05588954315,
334.5750122,0.07643017918,334.5750122,0.05548867956,
334.3796082,0.07651541382,334.3796082,0.05521453917,
334.1842041,0.07662413269,334.1842041,0.05482863262,
333.9888,0.07661428303,333.9888,0.05457475036,
333.7934265,0.07668506354,333.7934265,0.05426279083,
333.5980225,0.07687993348,333.5980225,0.0537173152,
333.4025574,0.07707297057,333.4025574,0.05313200131,
333.1680908,0.07715774328,333.1680908,0.05268627033,
332.9726563,0.07722372562,332.9726563,0.05222003534,
332.7771912,0.0773627758,332.7771912,0.05176371709,
332.5818176,0.07744804025,332.5818176,0.0512403883,
332.3863525,0.07758657634,332.3863525,0.0506250076,
332.1908875,0.07769212872,332.1908875,0.0498428829,
331.9954529,0.07697690278,331.9954529,0.04912366718,
331.7999878,0.07710941881,331.7999878,0.04843376949,
331.6045227,0.07714224607,331.6045227,0.04799109697,
331.3699646,0.07733367383,331.3699646,0.04718077183,
331.174469,0.07742780447,331.174469,0.04649968445,
330.9790344,0.07841148227,330.9790344,0.04588496685,
330.7835693,0.0785625428,330.7835693,0.04514940456,
330.5880432,0.07862949371,330.5880432,0.04456613958,
330.3925476,0.07875412703,330.3925476,0.04394939542,
330.197052,0.07890410721,330.197052,0.04320669919,
330.0015564,0.07819701731,330.0015564,0.04262611642,
329.8060913,0.07836605608,329.8060913,0.04189229012,
329.5714111,0.07849241793,329.5714111,0.04127844796,
329.375946,0.0786446631,329.375946,0.04073170945,
329.1804199,0.0787158981,329.1804199,0.04029957205,
328.9848633,0.0796758756,328.9848633,0.03985217214,
328.7893372,0.07984993607,328.7893372,0.03933176771,
328.5937805,0.08002301306,328.5937805,0.03862883151,
328.3982544,0.08018158376,328.3982544,0.03804512322,
328.2026978,0.0802847445,328.2026978,0.03755185753,
327.9680481,0.080471389,327.9680481,0.03712670505,
327.7724915,0.08056496084,327.7724915,0.03667315096,
327.5769348,0.08076700568,327.5769348,0.0362614058,
327.3813477,0.08098313957,327.3813477,0.03581881896,
327.185791,0.08100366592,327.185791,0.035696242,
326.9902039,0.0812215507,326.9902039,0.03520325199,
326.7946472,0.08139245212,326.7946472,0.03494341299,
326.5990295,0.08156236261,326.5990295,0.03473392129,
326.4034424,0.08178749681,326.4034424,0.03435989842,
326.1687317,0.08197747171,326.1687317,0.03405730799,
325.973114,0.08213410527,325.973114,0.03373212367,
325.7775269,0.0823020488,325.7775269,0.03335885331,
325.5818787,0.08244127035,325.5818787,0.0332365185,
325.3862915,0.08258031309,325.3862915,0.03296883404,
325.1906738,0.08275541663,325.1906738,0.03271892667,
324.9950562,0.08288560808,324.9950562,0.03259454295,
324.7993774,0.08315825462,324.7993774,0.03240355849,
324.6037598,0.08333622664,324.6037598,0.03225046396,
324.368988,0.08357875049,324.368988,0.0321273841,
324.1733398,0.08374267817,324.1733398,0.03200183064,
323.9776917,0.08388804644,323.9776917,0.03199860081,
323.7820435,0.08420173079,323.7820435,0.03172799945,
323.5863647,0.08444609493,323.5863647,0.03157753497,
323.390686,0.08463428915,323.390686,0.03141257167,
323.1950073,0.08479046077,323.1950073,0.03136387467,
322.9993591,0.08507762849,322.9993591,0.03105510399,
322.8036804,0.08518221229,322.8036804,0.03098192811,
322.5688477,0.08529589325,322.5688477,0.03090331703,
322.3731384,0.08563289046,322.3731384,0.03069684841,
322.1774292,0.08582226187,322.1774292,0.03072185256,
321.9817505,0.08610966802,321.9817505,0.03058451228,
321.7860413,0.08622637391,321.7860413,0.03063731641,
321.590332,0.08652895689,321.590332,0.03044382855,
321.3945618,0.08674836904,321.3945618,0.03043458425,
321.1988831,0.08695276827,321.1988831,0.03035679273,
321.0031738,0.0872509256,321.0031738,0.03028514981,
320.7682495,0.08750803024,320.7682495,0.03024390712,
320.5725403,0.08775276691,320.5725403,0.0301935114,
320.3768005,0.087967664,320.3768005,0.03024496138,
320.1810608,0.08827932924,320.1810608,0.03025345318,
319.9852905,0.08836907893,319.9852905,0.03037622571,
319.7895203,0.08870523423,319.7895203,0.03043380566,
319.5937805,0.08896882087,319.5937805,0.03052349575,
319.3980103,0.08913489431,319.3980103,0.03075491637,
319.20224,0.08938738704,319.20224,0.03071971238,
318.9673157,0.08970800787,318.9673157,0.0307944566,
318.7715149,0.08997446299,318.7715149,0.03087054752,
318.5757446,0.09029398859,318.5757446,0.03090948611,
318.3799438,0.09055031091,318.3799438,0.0311515145,
318.1841431,0.09079473466,318.1841431,0.03121907264,
317.9883728,0.09093928337,317.9883728,0.03148787841,
317.7925415,0.0911289081,317.7925415,0.03160933033,
317.5967407,0.09143669158,317.5967407,0.03175117075,
317.4009399,0.09174145758,317.4009399,0.03195290267,
317.2051086,0.092076011,317.2051086,0.03221407905,
316.9701233,0.09233032167,316.9701233,0.03259342909,
316.7742615,0.09268580377,316.7742615,0.03275192156,
316.5784607,0.09294890612,316.5784607,0.03296877816,
316.3826294,0.09320086986,316.3826294,0.03319438174,
316.1867676,0.09346039593,316.1867676,0.03333486989,
315.9909058,0.0938398391,315.9909058,0.03372367471,
315.7950134,0.09415035695,315.7950134,0.03399090096,
315.5992126,0.09432575107,315.5992126,0.03434006497,
315.4033203,0.0945397988,315.4033203,0.0345928669,
315.1682739,0.09482176602,315.1682739,0.03510854766,
314.9724426,0.09510266036,314.9724426,0.03535163403,
314.7765198,0.0955087319,314.7765198,0.03570768237,
314.580658,0.09586046636,314.580658,0.03608764708,
314.3847656,0.09606355429,314.3847656,0.03630803898,
314.1888733,0.09628585726,314.1888733,0.0365639627,
313.992981,0.0964801535,313.992981,0.03689178079,
313.7970581,0.09670940787,313.7970581,0.03714745864,
313.6011658,0.0969780609,313.6011658,0.03764842451,
313.3660583,0.09737170488,313.3660583,0.03823408484,
313.1701355,0.09761752933,313.1701355,0.03860475495,
312.9742126,0.09783528,312.9742126,0.03886045143,
312.7782898,0.09803325683,312.7782898,0.03925248235,
312.5823669,0.09826225787,312.5823669,0.03962178156,
312.3864441,0.0984775722,312.3864441,0.04018728063,
312.1904907,0.09878079593,312.1904907,0.04067991301,
311.9945374,0.0990267396,311.9945374,0.04122248292,
311.7985535,0.09925531596,311.7985535,0.04171423987,
311.6026306,0.09945436567,311.6026306,0.04213324189,
311.3674622,0.09981706738,311.3674622,0.04278822988,
311.1715088,0.09997853637,311.1715088,0.0432260558,
310.9755249,0.1002811119,310.9755249,0.04378931224,
310.7795715,0.1005288512,310.7795715,0.04434338585,
310.5835876,0.1007572487,310.5835876,0.04476487637,
310.3876038,0.100950323,310.3876038,0.04517132044,
310.1915894,0.1011420116,310.1915894,0.0458724238,
309.995636,0.1014534757,309.995636,0.04631195962,
309.7996216,0.1017416045,309.7996216,0.04688857868,
309.6036072,0.1020306498,309.6036072,0.04751941934,
309.3684082,0.1022524312,309.3684082,0.04801601917,
309.1723938,0.1024685204,309.1723938,0.04847498238,
308.9763794,0.102616623,308.9763794,0.04899907485,
308.780365,0.102793172,308.780365,0.04965536296,
308.5843201,0.103150174,308.5843201,0.05026495084,
308.3882751,0.1033854634,308.3882751,0.05110400543,
308.1922913,0.1036563739,308.1922913,0.05161413923,
307.9962158,0.1038101763,307.9962158,0.05216150731,
307.8001709,0.1039855033,307.8001709,0.0527084209,
307.604126,0.1042080522,307.604126,0.05325392261,
307.3688354,0.1045361459,307.3688354,0.05391843617,
307.1727905,0.1048062965,307.1727905,0.05483092368,
306.9767151,0.1050053686,306.9767151,0.05558755249,
306.7806702,0.1051694378,306.7806702,0.05629469454,
306.5845947,0.1053804234,306.5845947,0.05681609735,
306.3884888,0.1056014448,306.3884888,0.05758039281,
306.1924133,0.1058244929,306.1924133,0.05813329294,
305.9963379,0.1060907841,305.9963379,0.0590609163,
305.8002319,0.1063128337,305.8002319,0.05988773704,
305.6041565,0.1064870581,305.6041565,0.06067159772,
305.3688049,0.1067160219,305.3688049,0.06146218628,
305.1727295,0.1069851443,305.1727295,0.06234292686,
304.976593,0.1072012857,304.976593,0.06324467808,
304.7804871,0.1074175015,304.7804871,0.06437960267,
304.5843506,0.1076144576,304.5843506,0.06556987017,
304.3882141,0.1078337654,304.3882141,0.06644460559,
304.1921082,0.1079692692,304.1921082,0.06737792492,
303.9959717,0.1081552878,303.9959717,0.06837824732,
303.7998352,0.1084123105,303.7998352,0.06941939145,
303.6036987,0.1086632386,303.6036987,0.07072924823,
303.3683167,0.1090751439,303.3683167,0.07289107889,
303.1721497,0.1093305126,303.1721497,0.07433145493,
302.9759827,0.1103264168,302.9759827,0.07567216456,
302.7798157,0.1105395481,302.7798157,0.07695798576,
302.5836792,0.1107645854,302.5836792,0.07848671079,
302.3875122,0.1109123975,302.3875122,0.07984178513,
302.1913147,0.1112423241,302.1913147,0.08207274228,
301.9951172,0.1115391627,301.9951172,0.08400034904,
301.7989502,0.1117318049,301.7989502,0.08573811501,
301.6027527,0.1119460687,301.6027527,0.08737870306,
301.3673096,0.1122543216,301.3673096,0.0899207443,
301.1710815,0.1123616993,301.1710815,0.09184836596,
300.9749451,0.1126445159,300.9749451,0.09441720694,
300.778717,0.1128780618,300.778717,0.09662496299,
300.582489,0.1130759269,300.582489,0.09868104011,
300.3862305,0.1132066622,300.3862305,0.1007838175,
300.190033,0.1134032309,300.190033,0.1031483635,
299.9938049,0.1136359796,299.9938049,0.1056255773,

Baseline 100%T,
Baseline 100%T
Collection Time: 2/7/2020 1:32:25 PM
Operator Name  : Cameron Slaten Feb-7-2020
Scan Version 5.1.0.1016
Parameter List :
Instrument  Cary 60
Instrument Version  2.00
Start (nm)  550.0
Stop (nm)  300.0
X Mode  Nanometers
Y Mode  Abs
UV-Vis Scan Rate (nm/min)  60.000
UV-Vis Data Interval (nm)  0.20
UV-Vis Ave. Time (sec)  0.2000
Beam Mode  Dual Beam
Baseline Correction  On
Baseline Type  Baseline correction
Baseline File Name
Baseline Std Ref File Name
Cycle Mode  Off
Method Log     :
Method Name    :
Date/Time stamp: 2/7/2020 1:29:12 PM
Method Modifications:
UVVIS SAT Changed: 2/7/2020 1:29:35 PM, Old:0.0125, New:0.2000
Common SAT Changed: 2/7/2020 1:29:35 PM, Old:0.0125, New:0.2000
Comment Changed: 2/7/2020 1:30:17 PM, Old:, New:Pyranine in 70:30 mol % 1-butanol:Acetonitrile with 10M d/H2O
Operator Changed: 2/7/2020 1:30:17 PM, Old:, New:Cameron Slaten Feb-7-2020
X Start nm Changed: 2/7/2020 1:30:17 PM, Old:  800.0, New:  550.0
X Stop nm Changed: 2/7/2020 1:30:17 PM, Old:  200.0, New:  300.0
Common Interval nm Changed: 2/7/2020 1:30:17 PM, Old:     5.00, New:     0.20
Baseline Correction Changed: 2/7/2020 1:30:17 PM, Old:0, New:1
End Method Modifications
<Current Wavelength> , 300.6

Pyranine in 10M water in 70:30 1-butanol:acetonitrile,
Pyranine in 10M water in 70:30 1-butanol:acetonitrile
Collection Time: 2/7/2020 2:15:42 PM
Operator Name  : Cameron Slaten Feb-7-2020
Scan Version 5.1.0.1016
Parameter List :
Instrument  Cary 60
Instrument Version  2.00
Start (nm)  550.0
Stop (nm)  300.0
X Mode  Nanometers
Y Mode  Abs
UV-Vis Scan Rate (nm/min)  60.000
UV-Vis Data Interval (nm)  0.20
UV-Vis Ave. Time (sec)  0.2000
Beam Mode  Dual Beam
Baseline Correction  On
Baseline Type  Baseline correction
Baseline File Name
Baseline Std Ref File Name
Cycle Mode  Off
Method Log     :
Method Name    :
Date/Time stamp: 2/7/2020 1:29:12 PM
Method Modifications:
UVVIS SAT Changed: 2/7/2020 1:29:35 PM, Old:0.0125, New:0.2000
Common SAT Changed: 2/7/2020 1:29:35 PM, Old:0.0125, New:0.2000
Comment Changed: 2/7/2020 1:30:17 PM, Old:, New:Pyranine in 70:30 mol % 1-butanol:Acetonitrile with 10M d/H2O
Operator Changed: 2/7/2020 1:30:17 PM, Old:, New:Cameron Slaten Feb-7-2020
X Start nm Changed: 2/7/2020 1:30:17 PM, Old:  800.0, New:  550.0
X Stop nm Changed: 2/7/2020 1:30:17 PM, Old:  200.0, New:  300.0
Common Interval nm Changed: 2/7/2020 1:30:17 PM, Old:     5.00, New:     0.20
Baseline Correction Changed: 2/7/2020 1:30:17 PM, Old:0, New:1
End Method Modifications
<Current Wavelength> , 300.8

