Pyranine in Acetonitrile,,
Wavelength (nm),Abs,
549.9864502,0.03325728327,
549.798645,0.03467349708,
549.6106567,0.03266431019,
549.3852539,0.03282938898,
549.1972656,0.03679738566,
549.0093994,0.03601429611,
548.7838745,0.0379986167,
548.5959473,0.02818180248,
548.407959,0.03296188265,
548.182373,0.03377308324,
547.9944458,0.03726565093,
547.8065186,0.04045976698,
547.6184692,0.03774401918,
547.3929443,0.03482761607,
547.204834,0.04099483788,
547.0169067,0.0359172225,
546.7911987,0.04395607114,
546.6032104,0.03770804778,
546.4151611,0.03351231292,
546.1895752,0.03835715353,
546.0014648,0.04570610821,
545.8134155,0.04417169094,
545.5877686,0.04439315572,
545.3996582,0.03334439918,
545.2114868,0.04148920998,
544.9858398,0.03581246734,
544.7977295,0.03652817383,
544.6096191,0.04127898812,
544.3838501,0.03508968651,
544.1957397,0.03835463524,
544.0075684,0.03750117123,
543.7818604,0.04573394731,
543.5936279,0.03986261413,
543.4054565,0.04511158168,
543.2173462,0.04479621351,
542.9915161,0.04644696042,
542.8033447,0.04378762469,
542.6150513,0.03825104609,
542.3892212,0.03238406405,
542.2009888,0.04242253676,
542.0127563,0.03482719883,
541.7868652,0.04073495418,
541.5986938,0.04111581668,
541.4104004,0.04027057439,
541.1844482,0.03709030524,
540.9962769,0.03786440939,
540.8079224,0.04044374079,
540.5820313,0.04098507762,
540.3937378,0.04122499004,
540.2053833,0.03302522376,
540.0170898,0.04079764709,
539.7910767,0.04272732884,
539.6027832,0.0416980572,
539.4143677,0.0459295325,
539.1884155,0.0442930162,
539,0.04260393232,
538.8117065,0.03709884733,
538.5855713,0.03965399787,
538.3972168,0.03790527955,
538.2088623,0.03964489326,
537.9827271,0.03959759325,
537.7943726,0.04508780316,
537.605957,0.04090978578,
537.4174805,0.04150279611,
537.1914063,0.03945265338,
537.0029297,0.03961897269,
536.8144531,0.05498499423,
536.5883179,0.04543617368,
536.3999023,0.03958755359,
536.2114258,0.04320626706,
535.9852295,0.04566380382,
535.7966919,0.04350237176,
535.6082153,0.03952749819,
535.382019,0.04742479324,
535.1934814,0.04677517712,
535.0049438,0.0444788374,
534.8164063,0.04364254326,
534.5900879,0.04796059802,
534.4015503,0.04478883743,
534.2130127,0.04291079566,
533.9867554,0.04347661883,
533.7981567,0.03881017864,
533.6095581,0.0465727821,
533.3832397,0.05133896694,
533.1946411,0.04168925062,
533.0060425,0.0429696925,
532.8173828,0.04558027536,
532.5910645,0.05040572211,
532.4024048,0.04158810899,
532.2137451,0.05151307955,
531.9873657,0.04440451041,
531.7987061,0.04757068306,
531.6099854,0.04851422831,
531.383606,0.04863651097,
531.1948853,0.0442892313,
531.0062256,0.04450699687,
530.8175049,0.04353622347,
530.5910645,0.04350225627,
530.4023438,0.04891214892,
530.213623,0.05120243505,
529.9870605,0.04977933317,
529.7984009,0.04784310237,
529.6096191,0.04856682569,
529.3830566,0.04973671958,
529.1942749,0.0436151512,
529.0054932,0.04523974657,
528.8167725,0.04801946133,
528.5901489,0.05401123315,
528.4013672,0.04758419842,
528.2125244,0.0457800217,
527.9859009,0.04248727486,
527.7970581,0.04839594662,
527.6082764,0.0430351682,
527.3815918,0.04253603518,
527.192749,0.05090895668,
527.0039063,0.04844725505,
526.8150635,0.04390488937,
526.5883789,0.03982036561,
526.3994751,0.04660958424,
526.2105713,0.04136562347,
525.9838867,0.04510442913,
525.7949829,0.04602622241,
525.6060181,0.03994011134,
525.4170532,0.04513395578,
525.1903687,0.04687716067,
525.0013428,0.04780125618,
524.812439,0.04630608484,
524.5856323,0.0410553515,
524.3967285,0.05129157007,
524.2077026,0.04226726666,
523.980896,0.0443841815,
523.7918701,0.04317970574,
523.6028442,0.0425715819,
523.4138794,0.03839968145,
523.1870117,0.0457460843,
522.9979858,0.04466614127,
522.809021,0.04611124843,
522.5820923,0.04835008457,
522.3930664,0.04064281657,
522.2040405,0.04848980159,
522.0148926,0.0472374782,
521.7880249,0.04843504354,
521.598877,0.04672521725,
521.40979,0.03844479099,
521.1828613,0.04570052773,
520.9937744,0.04703365639,
520.8045654,0.04169383645,
520.6154785,0.04175598919,
520.3885498,0.04521202296,
520.1993408,0.04187985882,
520.0101929,0.04729791358,
519.7832031,0.04367714748,
519.5939941,0.04423981532,
519.4048462,0.04342320561,
519.2156372,0.04063519835,
518.9886475,0.04490025714,
518.7993774,0.04226678237,
518.6102295,0.04496872425,
518.3831177,0.04239059985,
518.1938477,0.0477905646,
518.0046387,0.04710866511,
517.8153687,0.043887306,
517.5883179,0.0474235788,
517.3989868,0.04842954502,
517.2097168,0.04757972434,
516.9825439,0.0466032438,
516.7932739,0.04118354991,
516.6040039,0.04491314664,
516.4146729,0.04560529068,
516.1875,0.04505882785,
515.9981689,0.04699872434,
515.8088379,0.03998801857,
515.581604,0.04815513641,
515.3922729,0.05037144944,
515.2029419,0.04509389028,
515.0134888,0.04305237532,
514.786377,0.04716671631,
514.5969238,0.04635570571,
514.4075317,0.04184867442,
514.1802368,0.04097592086,
513.9908447,0.04528941959,
513.8014526,0.04619657621,
513.6119995,0.04383919388,
513.3847046,0.04387553409,
513.1952515,0.03930005804,
513.0058594,0.04980360344,
512.8163452,0.05012539029,
512.5890503,0.0512223877,
512.3995361,0.04521216825,
512.210022,0.04629410431,
511.982666,0.04192929342,
511.7931519,0.04005963355,
511.6036682,0.0474700965,
511.4141541,0.04898925126,
511.1867065,0.04499516636,
510.9971924,0.0434133932,
510.8076172,0.04285347834,
510.5802307,0.04435837641,
510.3905945,0.03829910606,
510.2010803,0.04113570973,
510.0115356,0.0393489413,
509.7840271,0.0407323949,
509.5944519,0.04581592232,
509.4048462,0.04234562069,
509.2152405,0.04485272244,
508.9876709,0.04536786303,
508.7980957,0.05147286132,
508.60849,0.05006092414,
508.3808899,0.04686461762,
508.1912842,0.05334725231,
508.0015869,0.04713154212,
507.8119507,0.04091885686,
507.5843506,0.03974632174,
507.3946533,0.05156379566,
507.2049866,0.04945397377,
507.0152588,0.04464511201,
506.7876892,0.04475399852,
506.5979004,0.04279528558,
506.4082642,0.04674701393,
506.1805725,0.04578571767,
505.9908752,0.04674153402,
505.8010864,0.04852575064,
505.6113281,0.0468159467,
505.3836365,0.04548719153,
505.1938782,0.04766710103,
505.0041504,0.04436078668,
504.8143616,0.04669356719,
504.5865479,0.0486026071,
504.3968201,0.04552792385,
504.2070007,0.0421493873,
503.9792175,0.04446954653,
503.7894287,0.03770745546,
503.5995789,0.04519858211,
503.409729,0.04822148755,
503.1818848,0.04513137043,
502.9920959,0.04666310176,
502.8021545,0.04285913706,
502.6123657,0.05269933119,
502.384491,0.04946444556,
502.1946411,0.04849857092,
502.0046997,0.04025128856,
501.8148193,0.03974518925,
501.5869141,0.04578712955,
501.3970337,0.04367328435,
501.2071533,0.0439779833,
500.9791565,0.04629551619,
500.7892151,0.05190474167,
500.5993347,0.04465713352,
500.4093323,0.05041272938,
500.1813965,0.04542212188,
499.9914551,0.04748759419,
499.8014221,0.04504047707,
499.6114807,0.04323517904,
499.3834534,0.04813272506,
499.193512,0.04694686458,
499.003418,0.04487608746,
498.813446,0.04577099159,
498.5853882,0.04732536525,
498.3953552,0.04702044278,
498.2053223,0.04377797619,
498.0152283,0.04592654109,
497.7872009,0.04176830128,
497.5971069,0.04290027916,
497.407074,0.05340752006,
497.1789856,0.04844230786,
496.9888611,0.04532050714,
496.7987671,0.0425161086,
496.6087036,0.04750275612,
496.3805542,0.04331170768,
496.1904907,0.04353015497,
496.0003052,0.03944179788,
495.8101807,0.04711204022,
495.5819702,0.04258100316,
495.3918457,0.04491891712,
495.2016602,0.04315108433,
495.0115356,0.04167013243,
494.7832642,0.04673608765,
494.5931091,0.04878477752,
494.4029541,0.04657433927,
494.2127075,0.05221682414,
493.9844666,0.04310625792,
493.7943115,0.04156361148,
493.6040649,0.04552605748,
493.4138489,0.04790446162,
493.1855164,0.04581606761,
492.9952698,0.04624083266,
492.8051147,0.04569704831,
492.6147766,0.04985426366,
492.3865051,0.03984893858,
492.196167,0.04360859841,
492.0058899,0.0421435684,
491.7775269,0.04473945126,
491.5872803,0.04655520618,
491.3969116,0.05103517324,
491.2066345,0.04517591745,
490.978241,0.04644145817,
490.7878723,0.04392450675,
490.5975647,0.04782174528,
490.4072266,0.03888522089,
490.1788025,0.04841585457,
489.9884644,0.04574470222,
489.7980652,0.04248162359,
489.607666,0.04729318246,
489.3792114,0.04951062799,
489.1888428,0.05252401531,
488.9984436,0.05000504106,
488.8079834,0.05093785748,
488.5795593,0.04632716626,
488.3890991,0.04998008907,
488.1986694,0.0437691845,
488.0081787,0.04477468878,
487.7797241,0.0447232388,
487.5892334,0.04134993255,
487.3987732,0.05116390437,
487.2083435,0.05118767172,
486.9797363,0.04748309031,
486.7892151,0.05120380595,
486.5987854,0.04539231956,
486.4082642,0.04639922827,
486.179657,0.049127087,
485.9891357,0.04631362855,
485.7986145,0.05150398612,
485.6080933,0.04994529858,
485.379425,0.04820338264,
485.1889038,0.05268448591,
484.998291,0.05310994387,
484.8077698,0.04966711625,
484.5790405,0.05000059679,
484.3885193,0.04885898903,
484.1979065,0.04768327996,
484.0072937,0.05099106953,
483.7786255,0.05087286606,
483.5879517,0.05175744742,
483.3973999,0.04611090198,
483.2067871,0.04088068753,
482.9779663,0.04741064459,
482.787384,0.05330200493,
482.5967102,0.05025736615,
482.4060669,0.04571390152,
482.1772461,0.04472802952,
481.9865723,0.04875821993,
481.7959595,0.04534786195,
481.6051941,0.04624840617,
481.4145203,0.04868869111,
481.1856689,0.04139156267,
480.9949951,0.04125980288,
480.8042297,0.04359468818,
480.6135254,0.04225796461,
480.3846741,0.04643307626,
480.1939087,0.04323835298,
480.0032349,0.04775683954,
479.812439,0.05488884449,
479.5835571,0.04578569159,
479.3927612,0.04538705945,
479.2019958,0.03903960064,
479.0111694,0.04300698638,
478.7822571,0.04456786066,
478.5914612,0.04971706867,
478.4006958,0.04347947985,
478.2097778,0.04432288557,
477.9808655,0.04578028247,
477.7900085,0.04680317268,
477.5992126,0.04041766003,
477.4083862,0.04518749192,
477.1793518,0.04215632007,
476.9884949,0.03786923736,
476.7975769,0.04620098323,
476.6067505,0.04207294807,
476.377655,0.04365682602,
476.1867981,0.04314805567,
475.9958801,0.04206282645,
475.8049927,0.04461117461,
475.6140747,0.0414429903,
475.3849792,0.04519794881,
475.1940002,0.05049524456,
475.0031433,0.04578534514,
474.8121948,0.04310931638,
474.5830383,0.03890277445,
474.3920288,0.04983167723,
474.2011414,0.04738925025,
474.0101929,0.04644745216,
473.7809753,0.04246203974,
473.5900269,0.04869955033,
473.3989563,0.04440972954,
473.2080078,0.04759806395,
472.9787598,0.04142243043,
472.7878113,0.04803258553,
472.5967407,0.04996002093,
472.4057007,0.05083131045,
472.1764832,0.04499037191,
471.9854431,0.04846430197,
471.794342,0.04921077937,
471.6033325,0.0518733263,
471.4122314,0.04893697798,
471.1829834,0.0492920503,
470.9918823,0.04850239307,
470.8007813,0.04164460301,
470.6097412,0.05099997669,
470.3803711,0.04618261382,
470.18927,0.04800185189,
469.9980774,0.04963551462,
469.8070374,0.04836240783,
469.5776367,0.050325986,
469.3865356,0.04874591157,
469.195343,0.0514947772,
469.0041809,0.04722319171,
468.8130188,0.04556368664,
468.5836487,0.05067818239,
468.3924866,0.05157452449,
468.2012939,0.04680328816,
468.0101013,0.05432902649,
467.7806396,0.04811216146,
467.589447,0.04854030907,
467.3981934,0.05421882868,
467.2070007,0.05257864669,
466.9775085,0.05130272731,
466.7863159,0.05178349093,
466.5950012,0.0501610972,
466.4037781,0.04575600475,
466.2125549,0.05266154557,
465.9829712,0.05007847026,
465.7917175,0.04727745056,
465.6004333,0.04926586524,
465.4091797,0.04620003328,
465.1795959,0.0440746136,
464.9883118,0.04718988761,
464.7969971,0.04666716605,
464.6056519,0.04827925563,
464.3760681,0.04415782169,
464.1847229,0.04668673873,
463.9933777,0.04224972054,
463.8020935,0.0440761596,
463.6106873,0.04489704221,
463.3811035,0.04574113712,
463.1896667,0.04338841885,
462.9983215,0.04676970094,
462.8069763,0.0475285165,
462.57724,0.04761473089,
462.3858948,0.04468318447,
462.194458,0.04622491077,
462.0030518,0.04609786347,
461.8115845,0.04528358579,
461.5819397,0.04489388317,
461.3905029,0.04397698119,
461.1990051,0.04908059537,
461.0075684,0.04753163457,
460.777832,0.04493430257,
460.5863342,0.04539835453,
460.3948975,0.04849315807,
460.2033997,0.04284456745,
460.0119324,0.0440614894,
459.782135,0.04260296002,
459.5906372,0.04458527267,
459.3991699,0.05006563291,
459.2076111,0.04213583842,
458.9778442,0.04537631199,
458.7862549,0.05306890234,
458.5947571,0.04907935113,
458.4031372,0.04349307343,
458.2116394,0.04666650295,
457.9817505,0.04244180396,
457.7902222,0.04457273707,
457.5986938,0.04510224611,
457.4071045,0.04697431996,
457.177124,0.04485972598,
456.9855652,0.04417601973,
456.7939453,0.04521363229,
456.602356,0.04011658207,
456.4107666,0.04226421192,
456.1807861,0.04419501871,
455.9891968,0.0444002077,
455.7974854,0.04858538508,
455.605896,0.04094980657,
455.3758545,0.04756883532,
455.1842651,0.03864147887,
454.9926453,0.04452489316,
454.8009033,0.04243269563,
454.6092224,0.05249240622,
454.3792114,0.04289179295,
454.1875305,0.04545994475,
453.9958496,0.04321627691,
453.8041077,0.0451452136,
453.6123657,0.0491190888,
453.3823547,0.04954228178,
453.1905518,0.04813315719,
452.9988708,0.04295348749,
452.8071594,0.04764936492,
452.5770264,0.04692947119,
452.3852539,0.04837435856,
452.193512,0.05103066191,
452.0017395,0.04799575359,
451.809906,0.04882480949,
451.579834,0.04742412642,
451.3880005,0.04850760102,
451.196228,0.04673331976,
451.0043335,0.04045567289,
450.812561,0.04560738802,
450.5823364,0.04392797127,
450.390564,0.0444223173,
450.1987915,0.04804808274,
450.0068665,0.04778905958,
449.7766418,0.04740287736,
449.5848694,0.0444772318,
449.3929749,0.04757911712,
449.2010498,0.04176260158,
449.0091858,0.04964053258,
448.7789612,0.04289465025,
448.5870972,0.05121382326,
448.3951721,0.04107725993,
448.2032776,0.04725540057,
448.0113525,0.04654154927,
447.7810364,0.04630424082,
447.5891113,0.04534381256,
447.3971252,0.04372626916,
447.2052002,0.048933357,
446.974884,0.05021889135,
446.7829285,0.05161562562,
446.5909424,0.0489202626,
446.3990173,0.04594953358,
446.2070007,0.04633119702,
445.9766235,0.04317261651,
445.784668,0.04887069389,
445.5926514,0.04932963103,
445.4006653,0.05329629779,
445.2086487,0.04646715522,
444.9782104,0.05189065263,
444.7861938,0.04587529972,
444.5941772,0.04666474462,
444.4020996,0.04499255493,
444.210083,0.04397428781,
443.9796143,0.04779108241,
443.7875977,0.05284700543,
443.5954895,0.04717139155,
443.4034119,0.05154613033,
443.2113342,0.05128052831,
442.980835,0.04874802753,
442.7886963,0.05201496929,
442.5965881,0.05007835478,
442.4045105,0.0538812466,
442.2124023,0.05324657634,
441.9819031,0.05161641538,
441.7897339,0.04933897033,
441.5975952,0.05100714043,
441.4054871,0.04590568319,
441.1748657,0.04520314932,
440.9827576,0.04915204644,
440.7905884,0.04837638512,
440.5983582,0.0509840548,
440.406189,0.04441944882,
440.1755981,0.04808538407,
439.9833679,0.04615077376,
439.7911682,0.04232612997,
439.598938,0.0447900705,
439.4067688,0.04471566156,
439.1760559,0.04902364686,
438.9839172,0.04808526859,
438.791626,0.04875619337,
438.5994263,0.04614754766,
438.407196,0.04938255996,
438.1764526,0.04684740305,
437.9842224,0.04053509608,
437.7919617,0.04860440269,
437.5996704,0.05353929847,
437.4074402,0.04856983572,
437.1766357,0.04697911069,
436.984314,0.04867922142,
436.7920532,0.04770806804,
436.599762,0.04798337817,
436.4074402,0.04691208154,
436.1766663,0.05292466283,
435.984314,0.04573716596,
435.7919617,0.04816364124,
435.5996094,0.04483931884,
435.4072266,0.04601640999,
435.1764221,0.04500564933,
434.9841309,0.04482801259,
434.791748,0.04561529681,
434.5993347,0.04465021938,
434.4069824,0.04321890697,
434.1760864,0.04863277823,
433.9837341,0.03966500238,
433.7913208,0.0475240685,
433.5989075,0.04322757199,
433.4064941,0.04516264796,
433.1755981,0.04821966588,
432.9831238,0.04484253377,
432.7906799,0.04392006621,
432.5982666,0.04622491077,
432.4058228,0.0460014753,
432.1748047,0.04396331683,
431.9823914,0.04615324736,
431.7899475,0.04664944112,
431.5974426,0.04663604125,
431.4049377,0.04446822405,
431.1739807,0.04763425887,
430.9814758,0.04575499892,
430.7889709,0.04494567215,
430.5964661,0.04926076531,
430.4039001,0.04444987327,
430.2114563,0.0497722216,
429.9804077,0.0463623032,
429.7878418,0.0461001955,
429.5952759,0.046607133,
429.4027405,0.04526149482,
429.2101746,0.04556187615,
428.979126,0.04190263897,
428.7865295,0.04501549527,
428.5939331,0.04047104716,
428.4013672,0.04705768451,
428.2087708,0.0474729538,
427.9776306,0.0521186851,
427.7850647,0.04870539904,
427.5924072,0.04751508683,
427.3998108,0.05273224041,
427.2072144,0.04195692018,
426.9760132,0.04262400419,
426.7834167,0.04828087613,
426.5907593,0.04418450221,
426.3981018,0.04894694686,
426.2054443,0.04142897949,
425.9742737,0.04786203057,
425.7815552,0.04614584893,
425.5888977,0.04211869836,
425.3962097,0.04374782741,
425.2035217,0.04557153583,
425.0108032,0.04484308138,
424.7795715,0.04806025699,
424.586853,0.04818030074,
424.394104,0.04183157161,
424.201416,0.04525344819,
424.008667,0.04588013142,
423.7774353,0.04389741272,
423.5846863,0.04561288282,
423.3918762,0.04692866653,
423.1991882,0.04299467057,
423.0063782,0.04468364269,
422.7750854,0.04565034807,
422.5823059,0.04347876459,
422.3894958,0.04305829108,
422.1967163,0.0431590341,
422.0039368,0.04737406597,
421.8110962,0.04498072714,
421.5797119,0.04121721908,
421.3869324,0.04568709806,
421.1940613,0.0434971638,
421.0012207,0.04747015238,
420.8083801,0.04763642326,
420.5769958,0.04321724921,
420.3841553,0.04998802021,
420.1912537,0.04726189375,
419.9984741,0.04234088585,
419.8055725,0.04449079558,
419.5741272,0.04639119282,
419.3812256,0.04498213157,
419.188385,0.04283679649,
418.9954529,0.04231708497,
418.8025513,0.04876464978,
418.6096191,0.04483865947,
418.3781128,0.04642097652,
418.1852417,0.04925322533,
417.9922791,0.04664970189,
417.7993469,0.04949165508,
417.6064148,0.04286159202,
417.3748169,0.04710401967,
417.1819153,0.04301718995,
416.9889526,0.04761346057,
416.7959595,0.04669696838,
416.6029968,0.04493393004,
416.4100647,0.04329108447,
416.1784363,0.04280679673,
415.9854431,0.04582716897,
415.79245,0.04962222278,
415.5993958,0.04356523976,
415.4064636,0.04854123667,
415.1747742,0.04472633824,
414.9818115,0.04939323291,
414.7887573,0.04150502011,
414.5957031,0.04595971853,
414.4026184,0.04815886915,
414.2096252,0.04397457466,
413.9779053,0.04794944078,
413.7848816,0.05061157048,
413.5918274,0.04693166539,
413.3987427,0.05192592368,
413.205658,0.04456602409,
412.973938,0.04416069016,
412.7808533,0.0450835526,
412.5877075,0.05340638012,
412.3946228,0.05204733089,
412.2015381,0.04845631495,
412.0083923,0.05136647075,
411.7766113,0.04900318757,
411.5834656,0.0485342592,
411.3903809,0.04657240957,
411.1972046,0.04830121621,
411.0040588,0.05343793705,
410.7723083,0.04878790677,
410.5791016,0.05006635562,
410.3859253,0.05052601174,
410.192688,0.04966017976,
409.9995117,0.05087982118,
409.806366,0.05173024163,
409.5744934,0.05323955417,
409.3813171,0.05207552016,
409.1880798,0.05160778388,
408.9948425,0.05316760391,
408.8016052,0.05187732354,
408.608429,0.05340383202,
408.3764954,0.05664580688,
408.1833191,0.05240562558,
407.9900513,0.05602940917,
407.7967529,0.05923373252,
407.6035156,0.06026862189,
407.4102478,0.05657010525,
407.1783142,0.05642077699,
406.9850464,0.06063028425,
406.7917175,0.06010511518,
406.5984192,0.06413345784,
406.4051208,0.06486046314,
406.1731873,0.06626205146,
405.9798584,0.06192436442,
405.786499,0.06458557397,
405.5932007,0.06910973042,
405.3998718,0.06407549232,
405.2065125,0.06960859895,
404.9745178,0.0705139786,
404.7811584,0.07463407516,
404.5878296,0.07189828157,
404.3944702,0.08207558841,
404.2010803,0.07840993255,
404.0077209,0.0715649873,
403.7756348,0.083363235,
403.5822754,0.08063916862,
403.3888855,0.0884321928,
403.1954651,0.0940939635,
403.0020447,0.08755869418,
402.8086243,0.09411354363,
402.5765381,0.09503915161,
402.3830872,0.09767243266,
402.1896667,0.1031196415,
401.9962158,0.106753625,
401.8027649,0.1094714478,
401.6093445,0.1141580641,
401.3771973,0.121502459,
401.1837463,0.1226769537,
400.9902344,0.1248949021,
400.7967529,0.1288550049,
400.6032715,0.1334068179,
400.40979,0.1373654902,
400.1775818,0.1401155889,
399.9841003,0.1452322155,
399.7905884,0.1481639594,
399.5971069,0.1515560299,
399.4035339,0.1577292383,
399.210022,0.1606688052,
398.9777832,0.1573429108,
398.7842407,0.1655960679,
398.5906982,0.1678140908,
398.3971252,0.1707419753,
398.2035828,0.1718961895,
398.0100098,0.1794093251,
397.777771,0.1845192909,
397.584198,0.1818823963,
397.3905945,0.1900073588,
397.196991,0.1884734929,
397.0033875,0.19203116,
396.8098145,0.1930170208,
396.5774536,0.191687867,
396.3838501,0.1864884347,
396.1902466,0.189511925,
395.996582,0.1913303286,
395.8029785,0.1855471432,
395.609314,0.1871817261,
395.3769836,0.1842160523,
395.1832886,0.1783338785,
394.9896545,0.1801625341,
394.79599,0.1832239777,
394.602356,0.1764028817,
394.4086609,0.1680043489,
394.1762085,0.1670470983,
393.9825439,0.1656999737,
393.7888794,0.1620476395,
393.5951538,0.1587787122,
393.4014282,0.1542565227,
393.2077332,0.1515382826,
392.9752808,0.1458680481,
392.7815552,0.1396780759,
392.5878296,0.141382888,
392.394104,0.1355594099,
392.2003479,0.1315482408,
392.0065918,0.1281558275,
391.7741089,0.1230168343,
391.5803223,0.1244182214,
391.3865356,0.1188098639,
391.1927795,0.1185679436,
390.9990234,0.1203345731,
390.8052063,0.1109065861,
390.5726624,0.1147451624,
390.3788757,0.1129324436,
390.1850891,0.1107139736,
389.991272,0.1067752689,
389.7974548,0.1049288958,
389.6036072,0.108584322,
389.3710327,0.1026565209,
389.1771851,0.1000057831,
388.9833679,0.09862662852,
388.7895203,0.1010367125,
388.5956726,0.09986654669,
388.401825,0.1029971614,
388.2079468,0.1009413749,
387.9753113,0.1049816683,
387.7814331,0.0988021493,
387.5875244,0.103909865,
387.3936768,0.1030291617,
387.1997681,0.1037995592,
387.0058594,0.103353709,
386.7731934,0.1074110717,
386.5792542,0.1084003523,
386.385376,0.1094268188,
386.1914368,0.104037337,
385.9974976,0.1123144254,
385.8035889,0.1106757969,
385.5708313,0.1089358702,
385.3768921,0.1169118285,
385.1829529,0.114433527,
384.9889832,0.1135902479,
384.7950134,0.1149194986,
384.6010437,0.1198431179,
384.4070435,0.1233970821,
384.1742859,0.1230240911,
383.9802856,0.1258689314,
383.7862549,0.1296237707,
383.5923157,0.1215400547,
383.3982849,0.1271043569,
383.2042542,0.1298285127,
382.9714355,0.1317079365,
382.7774353,0.1364397854,
382.5834045,0.135598883,
382.3893433,0.1393649131,
382.195282,0.1396102756,
382.0012817,0.1417865008,
381.8072205,0.1441288739,
381.5743408,0.1509767026,
381.3802795,0.1491062939,
381.1861877,0.1474690586,
380.9921265,0.1542191952,
380.7980347,0.1561350822,
380.6039124,0.1560686231,
380.3710327,0.155410856,
380.1769104,0.1575316042,
379.9828491,0.1625936925,
379.7886963,0.1630025059,
379.594574,0.1646677852,
379.4004822,0.1623460501,
379.2063293,0.1633471251,
378.9733887,0.1688738465,
378.7792358,0.1681001335,
378.585083,0.166490227,
378.3909302,0.1675623059,
378.1967468,0.1756878793,
378.002594,0.1662100255,
377.8084106,0.1706322134,
377.5754089,0.1708875149,
377.3812256,0.1657792926,
377.1870422,0.1654851884,
376.9928284,0.1689874232,
376.7986145,0.1740717888,
376.6044312,0.1679291576,
376.3713379,0.164732039,
376.1771545,0.1723831892,
375.9829407,0.1655454338,
375.7886658,0.1702843904,
375.5944519,0.1636206061,
375.4002075,0.1672279984,
375.2059631,0.1641584039,
374.9728699,0.1622989923,
374.778595,0.1597582251,
374.5843506,0.1605290473,
374.3900757,0.1605373621,
374.1958008,0.1586476564,
374.0014954,0.1555126756,
373.8072205,0.1558834463,
373.5740662,0.1524968445,
373.3797607,0.1555203497,
373.1854553,0.1485293061,
372.9911499,0.1505235285,
372.796814,0.1444435418,
372.6025085,0.1499325484,
372.4081421,0.1499429345,
372.1749878,0.1398524046,
371.9806519,0.1433655322,
371.7862854,0.1474694312,
371.5919495,0.1471075416,
371.3976135,0.1407334805,
371.2032166,0.1400879025,
370.9699707,0.145273596,
370.7756042,0.1413215697,
370.5812073,0.1371124089,
370.3868103,0.1417531222,
370.1924438,0.1387203932,
369.9980469,0.1440687031,
369.8036194,0.1487117708,
369.5703125,0.1446592212,
369.3759155,0.142708689,
369.1815186,0.1469961554,
368.9870911,0.1478966326,
368.7926331,0.144734174,
368.5982056,0.1515084505,
368.4037781,0.1490125656,
368.1704102,0.1471508145,
367.9759827,0.1505450308,
367.7814941,0.149715811,
367.5870667,0.1484911144,
367.3925476,0.1497484893,
367.1980591,0.1530262977,
367.0036316,0.1562107652,
366.7702026,0.1532878429,
366.5757141,0.160291791,
366.3812256,0.1568571329,
366.1867065,0.1573304832,
365.992218,0.1592676193,
365.7976685,0.1583887488,
365.6031494,0.1548148841,
365.3697205,0.1563341916,
365.1752014,0.1579015404,
364.9806213,0.1550068557,
364.7861023,0.1601071656,
364.5915527,0.1575625986,
364.3969727,0.1619726866,
364.2024231,0.1598760486,
364.0078735,0.1600940675,
363.7743835,0.1639537811,
363.5797729,0.1623181403,
363.3851929,0.1588390768,
363.1906433,0.1588659436,
362.9960327,0.1541116089,
362.8014221,0.1565705538,
362.6068115,0.1579713672,
362.373291,0.1572625935,
362.1786499,0.1617297977,
361.9840088,0.1625455916,
361.7893982,0.1584684998,
361.5947876,0.1576136947,
361.400116,0.1556905359,
361.2054749,0.1578097641,
360.9718933,0.1538563669,
360.7772217,0.1546207517,
360.5825806,0.1544571817,
360.3879089,0.1548704654,
360.1932373,0.154192239,
359.9985657,0.1517398208,
359.8038635,0.1521313339,
359.5702515,0.1485203058,
359.3755493,0.1460002214,
359.1808167,0.15378277,
358.9861145,0.1485859007,
358.7914124,0.1478013396,
358.5966797,0.14045389,
358.401947,0.1415865421,
358.2072449,0.1370086372,
357.9735413,0.1419193149,
357.7788086,0.1436078399,
357.5840454,0.1381411254,
357.3892822,0.1351021826,
357.1945496,0.134856984,
356.9997864,0.1342108995,
356.8049927,0.1338753551,
356.5712585,0.1318797171,
356.3764954,0.1273495257,
356.1817322,0.1256430298,
355.9869385,0.1283635944,
355.7921143,0.1241328418,
355.5973206,0.1236264408,
355.4025269,0.1248171553,
355.1687622,0.1210085154,
354.9739075,0.1218765154,
354.7791138,0.1185928062,
354.5842896,0.1203434542,
354.3894348,0.1155455634,
354.1945801,0.1140245572,
353.9997253,0.119093813,
353.8049011,0.1130534634,
353.5710449,0.1136458963,
353.3762207,0.1129220054,
353.1813354,0.1144207194,
352.9864502,0.1161122918,
352.7915955,0.1138809249,
352.5966797,0.1124996617,
352.401825,0.1175718158,
352.2069397,0.1114379093,
351.9730225,0.1114864573,
351.7781677,0.1104261726,
351.5832214,0.1151489764,
351.3883057,0.1114980355,
351.1933899,0.1144563332,
350.9984436,0.1094214246,
350.8035278,0.108698383,
350.5696106,0.1110580266,
350.3746338,0.1101979166,
350.179718,0.1118912026,
349.9847717,0.1109746248,
349.7897949,0.1135296896,
349.5948181,0.1043890417,
349.3998413,0.1134788617,
349.204895,0.1092604995,
348.9708862,0.112727195,
348.7758789,0.1099035516,
348.5809021,0.1089225635,
348.3859253,0.1072068587,
348.190918,0.1124029756,
347.9959106,0.1061110795,
347.8009033,0.1103738397,
347.605896,0.1110237911,
347.3718262,0.1091939881,
347.1768494,0.1064048335,
346.981781,0.1098769531,
346.7867432,0.1082165241,
346.5917053,0.1107956842,
346.396637,0.1095277071,
346.2015991,0.1011101529,
346.0065308,0.1066366956,
345.7724609,0.1026424915,
345.5773621,0.1059932709,
345.3822937,0.1066747233,
345.1872253,0.1049551964,
344.9921265,0.09988388419,
344.7970276,0.1060933992,
344.6019287,0.1054038852,
344.4068604,0.1036584824,
344.1726685,0.1050821543,
343.9776001,0.1021296382,
343.7824402,0.1039530113,
343.5873108,0.09924907237,
343.3922119,0.1008691341,
343.197052,0.1001442373,
343.0019226,0.09943301976,
342.8067932,0.1008561701,
342.5725708,0.09932797402,
342.3774414,0.09633216262,
342.1822815,0.09874270856,
341.9870911,0.09374815226,
341.7919312,0.09498686343,
341.5967407,0.09427107126,
341.4015503,0.09074033797,
341.2063904,0.08819274604,
340.9721069,0.09461537004,
340.7769775,0.08965855092,
340.5817566,0.09168544412,
340.3865356,0.08770309389,
340.1912842,0.08983977884,
339.9960938,0.09022974223,
339.8008728,0.08915764838,
339.6056213,0.08602897078,
339.3713379,0.08840734512,
339.1761169,0.08328758925,
338.980896,0.08450027555,
338.785614,0.08480591327,
338.590332,0.08410696685,
338.3951111,0.08348748088,
338.1998291,0.0792947486,
338.0045471,0.08074926585,
337.7702332,0.08061338961,
337.5749207,0.07895772159,
337.3796387,0.08008476347,
337.1843567,0.07699668407,
336.9890442,0.07413324714,
336.7937622,0.07702715695,
336.5984497,0.07754217088,
336.4031372,0.07870733738,
336.1687622,0.07523778826,
335.9734192,0.07757141441,
335.7781067,0.07413831353,
335.5827637,0.07690582424,
335.3873901,0.07338808477,
335.1920776,0.07595065236,
334.9967346,0.07421901077,
334.8013611,0.07809168845,
334.605957,0.0733416155,
334.3715515,0.06867998838,
334.176178,0.06878922135,
333.9808044,0.07087885588,
333.7854004,0.07094105333,
333.5900269,0.07180520892,
333.3946533,0.07074551284,
333.1992493,0.07139659673,
333.0038452,0.07077518851,
332.7693481,0.068351008,
332.5739441,0.07031165808,
332.3785095,0.07054241747,
332.1831055,0.06878349185,
331.9876709,0.06712198257,
331.7922668,0.07056242228,
331.5968018,0.06973204017,
331.4013367,0.070351623,
331.2058716,0.06958696246,
330.9713745,0.06780792773,
330.7758789,0.0688495487,
330.5804749,0.06916066259,
330.3849792,0.07168886811,
330.1894836,0.06827606261,
329.9940186,0.06979593635,
329.7985535,0.0671273917,
329.6030579,0.06604985893,
329.3684692,0.06042394787,
329.1729431,0.06584174186,
328.977478,0.06651136279,
328.7819519,0.06222774833,
328.5864258,0.06976115704,
328.3909302,0.06399677694,
328.1954041,0.064488478,
327.9998474,0.06560897827,
327.8043518,0.06260037422,
327.5696716,0.06755959243,
327.3741455,0.06621968746,
327.1785889,0.06152090803,
326.9830322,0.06417243928,
326.7874756,0.06311319023,
326.5919189,0.05983984098,
326.3963318,0.05962476507,
326.2007751,0.0605744794,
326.005188,0.06196672842,
325.7705078,0.05765910819,
325.5749207,0.05900397897,
325.379303,0.061804194,
325.1836853,0.06211693212,
324.9880676,0.05863243714,
324.7924805,0.05400795117,
324.5968628,0.05910166726,
324.4012451,0.06004224345,
324.2056274,0.05797825009,
323.9708862,0.06021723524,
323.775238,0.06129381806,
323.5795593,0.0599180758,
323.3839722,0.06132127345,
323.1882935,0.05579587072,
322.9926453,0.05977671221,
322.7969666,0.05253058672,
322.6013184,0.05778745189,
322.4056702,0.05436158925,
322.1708374,0.05673072115,
321.9751587,0.05394279212,
321.7795105,0.05493546277,
321.5838013,0.05634190515,
321.388092,0.05797626823,
321.1923828,0.06007907167,
320.9966736,0.05568800494,
320.8009949,0.05691123009,
320.6052551,0.05782119185,
320.3703918,0.05759685487,
320.1746826,0.0609131977,
319.9789734,0.05399863049,
319.7832336,0.05641143396,
319.5874634,0.05645344034,
319.3917542,0.05443872511,
319.1960144,0.05717622489,
319.0002441,0.05612649024,
318.8044739,0.05678202212,
318.5695801,0.05802658945,
318.3738098,0.05537742004,
318.178009,0.05199121684,
317.9822388,0.05483427271,
317.786438,0.05204680562,
317.5906677,0.05767208338,
317.3948669,0.05242469907,
317.1990662,0.05456321687,
317.0032959,0.05412093922,
316.7683105,0.05657520518,
316.5725098,0.05626814067,
316.3766785,0.05422199517,
316.1808472,0.0507081449,
315.9850464,0.05299469829,
315.7892151,0.05824475735,
315.5933533,0.05114969611,
315.397522,0.05384118855,
315.2016907,0.05525016785,
314.9666748,0.05533613637,
314.770813,0.05621386692,
314.5749512,0.05719107762,
314.3790894,0.05259384215,
314.1832275,0.06162915751,
313.9873352,0.05131621286,
313.7914429,0.05882873759,
313.5956116,0.06068582833,
313.3996887,0.05743125081,
313.2037659,0.05714663863,
312.9687195,0.05581918359,
312.7727966,0.05969758332,
312.5769043,0.05275638402,
312.3809814,0.05128571391,
312.1850586,0.05417639017,
311.9891663,0.05330882221,
311.7932434,0.05203665048,
311.59729,0.06176957488,
311.4013672,0.05655409396,
311.1661987,0.06084967405,
310.9702759,0.0536124818,
310.7743225,0.05586828664,
310.5783386,0.05500735343,
310.3824158,0.05530635267,
310.1864319,0.05681087449,
309.990448,0.05728641152,
309.7944641,0.05676031113,
309.5985107,0.05502950773,
309.4025269,0.05815158039,
309.1673279,0.05494736135,
308.9713135,0.05168842897,
308.7753296,0.05955839902,
308.5793457,0.05829365924,
308.3833313,0.05515880883,
308.1873169,0.05796570703,
307.991272,0.06142047048,
307.7952881,0.05680464953,
307.5992432,0.06080470979,
307.4032288,0.05707640201,
307.1679688,0.05498946086,
306.9719238,0.05811027065,
306.7758789,0.05874847621,
306.5798035,0.06049657613,
306.3837585,0.05427179486,
306.1877136,0.06053258106,
305.9916687,0.05964656174,
305.7955627,0.05818854645,
305.5994873,0.05916511267,
305.4034119,0.05798283592,
305.1681213,0.05896178633,
304.9720154,0.05452711508,
304.7759399,0.0611281693,
304.5798645,0.06214410812,
304.383728,0.05538300797,
304.1876221,0.05926411599,
303.9915161,0.06256853789,
303.7954407,0.0608119145,
303.5992737,0.05941329524,
303.4031677,0.06017206609,
303.1678162,0.06026883051,
302.9716797,0.05876190215,
302.7755127,0.06411926448,
302.5793762,0.06504883617,
302.3832092,0.06175999716,
302.1871033,0.05790077895,
301.9909363,0.06064353138,
301.7947388,0.05937993526,
301.5986023,0.06355720013,
301.4024048,0.06058358774,
301.1670227,0.0621868521,
300.9708252,0.06319069862,
300.7745972,0.06656467915,
300.5784607,0.06177796051,
300.3822632,0.06072199717,
300.1860352,0.06672954559,
299.9898376,0.06617084891,

Pyranine in Acetonitrile,
Pyranine in Acetonitrile
Collection Time: 2/1/2020 2:49:15 PM
Operator Name  : Cameron Slaten
Scan Version 5.1.0.1016
Parameter List :
Instrument  Cary 60
Instrument Version  2.00
Start (nm)  550.0
Stop (nm)  300.0
X Mode  Nanometers
Y Mode  Abs
UV-Vis Scan Rate (nm/min)  60.000
UV-Vis Data Interval (nm)  0.20
UV-Vis Ave. Time (sec)  0.2000
Beam Mode  Dual Beam
Baseline Correction  On
Baseline Type  Baseline correction
Baseline File Name
Baseline Std Ref File Name
Cycle Mode  Off
Method Log     :
Method Name    :
Date/Time stamp: 2/1/2020 2:40:20 PM
Method Modifications:
UVVIS SAT Changed: 2/1/2020 2:40:46 PM, Old:0.0125, New:0.2000
Common SAT Changed: 2/1/2020 2:40:46 PM, Old:0.0125, New:0.2000
Comment Changed: 2/1/2020 2:41:16 PM, Old:, New:Pyranine in Acetonitrile
Operator Changed: 2/1/2020 2:41:16 PM, Old:, New:Cameron Slaten
X Start nm Changed: 2/1/2020 2:41:16 PM, Old:  800.0, New:  550.0
X Stop nm Changed: 2/1/2020 2:41:16 PM, Old:  200.0, New:  300.0
Common Interval nm Changed: 2/1/2020 2:41:16 PM, Old:     5.00, New:     0.20
Baseline Correction Changed: 2/1/2020 2:41:16 PM, Old:0, New:1
End Method Modifications
<Current Wavelength> , 300.0

