pyranine in water, sample prepared on Jan-24th,,pyranine in 1-butanol, sample prepared on Jan-24th, 2nd run,,
Wavelength (nm),Abs,Wavelength (nm),Abs,
549.9864502,0.001239894074,549.9864502,0.001237583696,
549.798645,0.0012165308,549.798645,0.001210041111,
549.6106567,0.001133523183,549.6106567,0.001123609021,
549.3852539,0.001156155253,549.3852539,0.001191143994,
549.1972656,0.001198723563,549.1972656,0.001158517203,
549.0093994,0.001218555495,549.0093994,0.001212792704,
548.7838745,0.001195089542,548.7838745,0.00113217358,
548.5959473,0.001221878221,548.5959473,0.001252329093,
548.407959,0.001285715844,548.407959,0.001192415948,
548.182373,0.001222786843,548.182373,0.001185822883,
547.9944458,0.001261467347,547.9944458,0.001146032941,
547.8065186,0.001257547294,547.8065186,0.001183253131,
547.6184692,0.001239219098,547.6184692,0.001172091928,
547.3929443,0.00127582415,547.3929443,0.001164175454,
547.204834,0.001396720647,547.204834,0.001280705095,
547.0169067,0.001297684852,547.0169067,0.001260039513,
546.7911987,0.001293478766,546.7911987,0.001217413344,
546.6032104,0.001313860412,546.6032104,0.001149121555,
546.4151611,0.001262142323,546.4151611,0.001179048209,
546.1895752,0.001318871509,546.1895752,0.001222605119,
546.0014648,0.001331152976,546.0014648,0.001243814128,
545.8134155,0.001394902822,545.8134155,0.001187639777,
545.5877686,0.001270631794,545.5877686,0.001197399688,
545.3996582,0.001266010571,545.3996582,0.001196335419,
545.2114868,0.001214687712,545.2114868,0.001181565924,
544.9858398,0.001182111097,544.9858398,0.001144553535,
544.7977295,0.001203266089,544.7977295,0.001172247692,
544.6096191,0.001198074548,544.6096191,0.001176841906,
544.3838501,0.001213571522,544.3838501,0.00118527771,
544.1957397,0.001234883908,544.1957397,0.001246799482,
544.0075684,0.00119277928,544.0075684,0.001198437996,
543.7818604,0.00115908822,543.7818604,0.001165499212,
543.5936279,0.00126510195,543.5936279,0.001219126629,
543.4054565,0.001252069487,543.4054565,0.001205835957,
543.2173462,0.001238518278,543.2173462,0.00121152075,
542.9915161,0.001163267065,542.9915161,0.001110814279,
542.8033447,0.001211390947,542.8033447,0.001162125031,
542.6150513,0.001232910901,542.6150513,0.00117632281,
542.3892212,0.001192961005,542.3892212,0.001154701808,
542.2009888,0.0012250453,542.2009888,0.00121152075,
542.0127563,0.001232235925,542.0127563,0.00122112548,
541.7868652,0.001206147484,541.7868652,0.001178321429,
541.5986938,0.001183279091,541.5986938,0.001126074465,
541.4104004,0.00118958659,541.4104004,0.001172688906,
541.1844482,0.001182111097,541.1844482,0.001170949894,
540.9962769,0.001216323115,540.9962769,0.001172611024,
540.8079224,0.001203967026,540.8079224,0.001193116768,
540.5820313,0.001178139704,540.5820313,0.001208847039,
540.3937378,0.001184083754,540.3937378,0.001213649404,
540.2053833,0.00113803905,540.2053833,0.001186990878,
540.0170898,0.001102146343,540.0170898,0.001115278108,
539.7910767,0.001218503574,539.7910767,0.001187302405,
539.6027832,0.00113341934,539.6027832,0.001109412871,
539.4143677,0.001206095563,539.4143677,0.001195089542,
539.1884155,0.001223176252,539.1884155,0.001255470328,
539,0.001135210157,539,0.001130538527,
538.8117065,0.001185148023,538.8117065,0.001223176252,
538.5855713,0.001198541839,538.5855713,0.001164824353,
538.3972168,0.001214713673,538.3972168,0.001212948468,
538.2088623,0.001267075073,538.2088623,0.001181903412,
537.9827271,0.001192805241,537.9827271,0.001150159747,
537.7943726,0.001268373104,537.7943726,0.001182993525,
537.605957,0.001234831987,537.605957,0.001204460161,
537.4174805,0.001240465208,537.4174805,0.001205809996,
537.1914063,0.001232936862,537.1914063,0.001232755138,
537.0029297,0.001196283498,537.0029297,0.001160593587,
536.8144531,0.001173727214,536.8144531,0.001168224495,
536.5883179,0.001205083216,536.5883179,0.001210222836,
536.3999023,0.00126510195,536.3999023,0.001173597411,
536.2114258,0.001273253933,536.2114258,0.001158828614,
535.9852295,0.001267204876,535.9852295,0.001248486922,
535.7966919,0.001231431263,535.7966919,0.001218166202,
535.6082153,0.001175440266,535.6082153,0.001182734035,
535.382019,0.001215180964,535.382019,0.001200592495,
535.1934814,0.001258170349,535.1934814,0.001191455522,
535.0049438,0.001208250062,535.0049438,0.001140011591,
534.8164063,0.001233949326,534.8164063,0.001197114121,
534.5900879,0.001214609831,534.5900879,0.001190988231,
534.4015503,0.001279744552,534.4015503,0.001156155253,
534.2130127,0.001219801605,534.2130127,0.001197321806,
533.9867554,0.001253705006,533.9867554,0.001172507182,
533.7981567,0.001238959492,533.7981567,0.001193506061,
533.6095581,0.001228809357,533.6095581,0.001170923933,
533.3832397,0.001244774554,533.3832397,0.001224837615,
533.1946411,0.001208717236,533.1946411,0.001204226515,
533.0060425,0.001142347464,533.0060425,0.001116316183,
532.8173828,0.001213779207,532.8173828,0.001199086895,
532.5910645,0.001229614019,532.5910645,0.001178035862,
532.4024048,0.001203629537,532.4024048,0.001161787543,
532.2137451,0.001186783193,532.2137451,0.001165940426,
531.9873657,0.001219412195,531.9873657,0.001130097313,
531.7987061,0.001244021812,531.7987061,0.001153196441,
531.6099854,0.001240413287,531.6099854,0.001169029158,
531.383606,0.001209807582,531.383606,0.001181617845,
531.1948853,0.0012435026,531.1948853,0.001133445301,
531.0062256,0.001224344363,531.0062256,0.001149121555,
530.8175049,0.00113557349,530.8175049,0.001094464678,
530.5910645,0.001267049112,530.5910645,0.001137338346,
530.4023438,0.001265880768,530.4023438,0.001171105658,
530.213623,0.001245475491,530.213623,0.001124647097,
529.9870605,0.001284028287,529.9870605,0.0011512239,
529.7984009,0.001266218373,529.7984009,0.001144242124,
529.6096191,0.00126961933,529.6096191,0.001143463538,
529.3830566,0.001252069487,529.3830566,0.001126930933,
529.1942749,0.001237947145,529.1942749,0.001119534369,
529.0054932,0.001190832467,529.0054932,0.001089066849,
528.8167725,0.001249109977,528.8167725,0.001114369836,
528.5901489,0.001200878061,528.5901489,0.001109880046,
528.4013672,0.001226109569,528.4013672,0.0011786588,
528.2125244,0.001226784545,528.2125244,0.001092881663,
527.9859009,0.001250200323,527.9859009,0.001138687949,
527.7970581,0.001197166042,527.7970581,0.00107596186,
527.6082764,0.001254639588,527.6082764,0.001095918007,
527.3815918,0.001218685298,527.3815918,0.001069396501,
527.192749,0.001281873439,527.192749,0.001193090808,
527.0039063,0.001288078493,527.0039063,0.001185926725,
526.8150635,0.001320948708,526.8150635,0.001159010339,
526.5883789,0.001351770014,526.5883789,0.001210560324,
526.3994751,0.001329309423,526.3994751,0.001209444134,
526.2105713,0.001302072662,526.2105713,0.001181617845,
525.9838867,0.001316690468,525.9838867,0.001191247837,
525.7949829,0.001287948689,525.7949829,0.001178996288,
525.6060181,0.001238855766,525.6060181,0.001198827405,
525.4170532,0.001257651136,525.4170532,0.001186653506,
525.1903687,0.00130513648,525.1903687,0.001176945749,
525.0013428,0.001302488148,525.0013428,0.001228549751,
524.812439,0.001273851027,524.812439,0.001138168853,
524.5856323,0.001254354022,524.5856323,0.001190988231,
524.3967285,0.001276447321,524.3967285,0.001145955059,
524.2077026,0.001268528868,524.2077026,0.001116160536,
523.980896,0.001247837907,523.980896,0.001146370429,
523.7918701,0.001247474458,523.7918701,0.001173882862,
523.6028442,0.001348680002,523.6028442,0.001209599897,
523.4138794,0.001254120376,523.4138794,0.001139233005,
523.1870117,0.001266140491,523.1870117,0.001193012926,
522.9979858,0.001262765494,522.9979858,0.001200748258,
522.809021,0.001301839016,522.809021,0.001203006599,
522.5820923,0.001302617951,522.5820923,0.001249888795,
522.3930664,0.0012543021,522.3930664,0.001146811643,
522.2040405,0.00126385584,522.2040405,0.001213415759,
522.0148926,0.001285378356,522.0148926,0.001229562215,
521.7880249,0.001245631254,521.7880249,0.001209080685,
521.598877,0.001205316745,521.598877,0.001170326956,
521.40979,0.001303241123,521.40979,0.001212299569,
521.1828613,0.001299917698,521.1828613,0.001256171265,
520.9937744,0.001280237804,520.9937744,0.001230263035,
520.8045654,0.001284573576,520.8045654,0.001139440574,
520.6154785,0.001298671472,520.6154785,0.001236752956,
520.3885498,0.001228445908,520.3885498,0.001247837907,
520.1993408,0.001259598183,520.1993408,0.001251835842,
520.0101929,0.00122112548,520.0101929,0.001231872593,
519.7832031,0.001275227056,519.7832031,0.001223877072,
519.5939941,0.001273409696,519.5939941,0.001286209212,
519.4048462,0.001238025026,519.4048462,0.001234728144,
519.2156372,0.001211546711,519.2156372,0.001211235183,
518.9886475,0.001227355562,518.9886475,0.001238466357,
518.7993774,0.001252536778,518.7993774,0.001297425246,
518.6102295,0.001238362514,518.6102295,0.001184680732,
518.3831177,0.001211027615,518.3831177,0.001203058404,
518.1938477,0.001251394511,518.1938477,0.001223617466,
518.0046387,0.001249525347,518.0046387,0.001188158989,
517.8153687,0.001242749742,517.8153687,0.001157530933,
517.5883179,0.001266452018,517.5883179,0.001190131647,
517.3989868,0.001224941458,517.3989868,0.001222397434,
517.2097168,0.001286468818,517.2097168,0.001164409099,
516.9825439,0.001218243968,516.9825439,0.001186964917,
516.7932739,0.001168328337,516.7932739,0.001130304881,
516.6040039,0.001221540733,516.6040039,0.001165525173,
516.4146729,0.001269878936,516.4146729,0.001180787222,
516.1875,0.001197607373,516.1875,0.001127579832,
515.9981689,0.001304669073,515.9981689,0.001249499386,
515.8088379,0.001259702025,515.8088379,0.001221930142,
515.581604,0.001275772229,515.581604,0.001235610689,
515.3922729,0.001198827405,515.3922729,0.001231820672,
515.2029419,0.001180501771,515.2029419,0.001225486514,
515.0134888,0.001311705331,515.0134888,0.001238518278,
514.786377,0.001277615549,514.786377,0.001150341472,
514.5969238,0.001230808208,514.5969238,0.001204148633,
514.4075317,0.001274604001,514.4075317,0.001194933779,
514.1802368,0.001338890754,514.1802368,0.001228991081,
513.9908447,0.001296698232,513.9908447,0.001235428965,
513.8014526,0.001281432109,513.8014526,0.001193791628,
513.6119995,0.001203577616,513.6119995,0.001099084038,
513.3847046,0.001317625283,513.3847046,0.001230003429,
513.1952515,0.001109906007,513.1952515,0.001159866923,
513.0058594,0.001187743619,513.0058594,0.001152002485,
512.8163452,0.001208327943,512.8163452,0.001248175395,
512.5890503,0.00121305231,512.5890503,0.001183019485,
512.3995361,0.001272345311,512.3995361,0.001200514613,
512.210022,0.001247214852,512.210022,0.001214973279,
511.982666,0.001183953951,511.982666,0.001140894019,
511.7931519,0.001212039962,511.7931519,0.001212247647,
511.6036682,0.001211235183,511.6036682,0.001184966299,
511.4141541,0.001199787832,511.4141541,0.001201267354,
511.1867065,0.001239063335,511.1867065,0.00113095378,
510.9971924,0.001158984378,510.9971924,0.001123012044,
510.8076172,0.001211442868,510.8076172,0.001207185793,
510.5802307,0.001294543268,510.5802307,0.001176789985,
510.3905945,0.001322818222,510.3905945,0.001213623444,
510.2010803,0.001265283674,510.2010803,0.001187925343,
510.0115356,0.001236337586,510.0115356,0.001231794711,
509.7840271,0.001235714532,509.7840271,0.001142944442,
509.5944519,0.001295841415,509.5944519,0.001260247198,
509.4048462,0.001297243522,509.4048462,0.001247682143,
509.2152405,0.001237376011,509.2152405,0.001198931248,
508.9876709,0.001221203362,508.9876709,0.001154182712,
508.7980957,0.001284599537,508.7980957,0.001228212263,
508.60849,0.001178529114,508.60849,0.001162202796,
508.3808899,0.001269775094,508.3808899,0.001189742354,
508.1912842,0.001211780356,508.1912842,0.001180346007,
508.0015869,0.001306927996,508.0015869,0.001103651593,
507.8119507,0.001154857571,507.8119507,0.001156025566,
507.5843506,0.001187354326,507.5843506,0.001132640755,
507.3946533,0.001262713573,507.3946533,0.001188262831,
507.2049866,0.001243943931,507.2049866,0.001188833849,
507.0152588,0.001252978109,507.0152588,0.001179255778,
506.7876892,0.001191299758,506.7876892,0.001162150991,
506.5979004,0.00116983382,506.5979004,0.00114574749,
506.4082642,0.001189872157,506.4082642,0.001130434684,
506.1805725,0.001263258746,506.1805725,0.001187380287,
505.9908752,0.001189664472,505.9908752,0.001156907994,
505.8010864,0.001161086722,505.8010864,0.001080840477,
505.6113281,0.001228601672,505.6113281,0.001103262301,
505.3836365,0.001148576499,505.3836365,0.001164772431,
505.1938782,0.001173649332,505.1938782,0.001098123845,
505.0041504,0.001264401013,505.0041504,0.001176530379,
504.8143616,0.001181436121,504.8143616,0.001069707912,
504.5865479,0.001197114121,504.5865479,0.00117214385,
504.3968201,0.001180371968,504.3968201,0.001115563558,
504.2070007,0.001166745089,504.2070007,0.001108348835,
503.9792175,0.001204589964,503.9792175,0.00111657579,
503.7894287,0.001151872799,503.7894287,0.001105338451,
503.5995789,0.001161917346,503.5995789,0.001249109977,
503.409729,0.001193947392,503.409729,0.001166329719,
503.1818848,0.001241347869,503.1818848,0.001109231263,
502.9920959,0.001256638672,502.9920959,0.001230626483,
502.8021545,0.001142036053,502.8021545,0.001168561983,
502.6123657,0.001283275429,502.6123657,0.001132225501,
502.384491,0.001177932019,502.384491,0.001136118546,
502.1946411,0.001171884243,502.1946411,0.001152625424,
502.0046997,0.001208847039,502.0046997,0.001174869249,
501.8148193,0.001271826099,501.8148193,0.001194103155,
501.5869141,0.001291557564,501.5869141,0.001153300283,
501.3970337,0.00120928837,501.3970337,0.001143852831,
501.2071533,0.001231041853,501.2071533,0.001227225875,
500.9791565,0.001172507182,500.9791565,0.001087743323,
500.7892151,0.001232755138,500.7892151,0.001192441909,
500.5993347,0.001220087055,500.5993347,0.001191948657,
500.4093323,0.001294906833,500.4093323,0.001182630192,
500.1813965,0.001349225291,500.1813965,0.001190884388,
499.9914551,0.001269307802,499.9914551,0.001242827624,
499.8014221,0.001180994906,499.8014221,0.001142010093,
499.6114807,0.001254977076,499.6114807,0.001227537286,
499.3834534,0.001175933401,499.3834534,0.001100122114,
499.193512,0.001162176835,499.193512,0.001105520059,
499.003418,0.001206121524,499.003418,0.001116679632,
498.813446,0.001155402628,498.813446,0.001108270953,
498.5853882,0.00116072339,498.5853882,0.001091532176,
498.3953552,0.001195920166,498.3953552,0.00120817218,
498.2053223,0.001160515705,498.2053223,0.001143515459,
498.0152283,0.001221904182,498.0152283,0.001212117844,
497.7872009,0.001197295845,497.7872009,0.001142944442,
497.5971069,0.001241529593,497.5971069,0.001191559364,
497.407074,0.001176660182,497.407074,0.001171027776,
497.1789856,0.001159140142,497.1789856,0.001136222389,
496.9888611,0.001134976512,496.9888611,0.001144813141,
496.7987671,0.001141516957,496.7987671,0.001122778514,
496.6087036,0.001200981787,496.6087036,0.001151301782,
496.3805542,0.001121506793,496.3805542,0.001118600019,
496.1904907,0.001168639865,496.1904907,0.00117977499,
496.0003052,0.001108348835,496.0003052,0.001176919788,
495.8101807,0.00111507054,495.8101807,0.001161268447,
495.5819702,0.001259442419,495.5819702,0.001115537714,
495.3918457,0.001163578476,495.3918457,0.001075494685,
495.2016602,0.001153871301,495.2016602,0.001138713909,
495.0115356,0.001136300154,495.0115356,0.001174350153,
494.7832642,0.001154416357,494.7832642,0.001134120044,
494.5931091,0.001173571451,494.5931091,0.001138402498,
494.4029541,0.001188236871,494.4029541,0.001181280473,
494.2127075,0.001180190244,494.2127075,0.001161450171,
493.9844666,0.00114668184,493.9844666,0.001167134382,
493.7943115,0.00114380091,493.7943115,0.00114380091,
493.6040649,0.00113188813,493.6040649,0.001139881788,
493.4138489,0.001226784545,493.4138489,0.001235896256,
493.1855164,0.001126749325,493.1855164,0.001175647951,
492.9952698,0.001136897132,492.9952698,0.001123894472,
492.8051147,0.001183279091,492.8051147,0.001129863667,
492.6147766,0.001189093455,492.6147766,0.001176426653,
492.3865051,0.001199606108,492.3865051,0.001206822344,
492.196167,0.001178503153,492.196167,0.001150341472,
492.0058899,0.001215310651,492.0058899,0.001120858011,
491.7775269,0.001230366877,491.7775269,0.001173285884,
491.5872803,0.001312198699,491.5872803,0.001205654233,
491.3969116,0.001201552921,491.3969116,0.001186861075,
491.2066345,0.001239063335,491.2066345,0.001195452875,
490.978241,0.001241010381,490.978241,0.001190469135,
490.7878723,0.001256638672,490.7878723,0.001206458895,
490.5975647,0.001251809881,490.5975647,0.001267957734,
490.4072266,0.001267282758,490.4072266,0.00118751009,
490.1788025,0.001283612917,490.1788025,0.001265725004,
489.9884644,0.001257287688,489.9884644,0.001244411222,
489.7980652,0.001267049112,489.7980652,0.001219931291,
489.607666,0.001290752669,489.607666,0.001240672893,
489.3792114,0.001295581809,489.3792114,0.001273176051,
489.1888428,0.001291116117,489.1888428,0.00125822227,
488.9984436,0.001235299162,488.9984436,0.001282210927,
488.8079834,0.001233585877,488.8079834,0.001251809881,
488.5795593,0.001224863576,488.5795593,0.001194518409,
488.3890991,0.001239530626,488.3890991,0.001221800339,
488.1986694,0.00126920396,488.1986694,0.001186471782,
488.0081787,0.001243606443,488.0081787,0.001240075799,
487.7797241,0.001213571522,487.7797241,0.00125092722,
487.5892334,0.001239764271,487.5892334,0.001248019631,
487.3987732,0.001264478895,487.3987732,0.001263829879,
487.2083435,0.001257729018,487.2083435,0.00118392799,
486.9797363,0.00127312413,486.9797363,0.001232235925,
486.7892151,0.001279640594,486.7892151,0.001266010571,
486.5987854,0.001194674172,486.5987854,0.00124267186,
486.4082642,0.001196672907,486.4082642,0.001220528386,
486.179657,0.001234208932,486.179657,0.001258196309,
485.9891357,0.001182863838,485.9891357,0.001174661564,
485.7986145,0.001234650263,485.7986145,0.001213026349,
485.6080933,0.001169522293,485.6080933,0.00121081993,
485.379425,0.001243736246,485.379425,0.001209547976,
485.1889038,0.001223331899,485.1889038,0.00120970374,
484.998291,0.001227952656,484.998291,0.001227199915,
484.8077698,0.001285352395,484.8077698,0.001219022786,
484.5790405,0.001246332191,484.5790405,0.001208847039,
484.3885193,0.001235273201,484.3885193,0.001227407483,
484.1979065,0.001254120376,484.1979065,0.001192623517,
484.0072937,0.001221488928,484.0072937,0.00124923978,
483.7786255,0.001208743197,483.7786255,0.001205316745,
483.5879517,0.0012578069,483.5879517,0.001191637246,
483.3973999,0.001232391689,483.3973999,0.001284781261,
483.2067871,0.001262791455,483.2067871,0.001183305052,
482.9779663,0.001243528561,482.9779663,0.001244696672,
482.787384,0.001247007167,482.787384,0.001230652444,
482.5967102,0.001343772397,482.5967102,0.001258144388,
482.4060669,0.001312198699,482.4060669,0.001307421247,
482.1772461,0.001226265333,482.1772461,0.001206355053,
481.9865723,0.001267646207,481.9865723,0.001246461994,
481.7959595,0.001252536778,481.7959595,0.001243217033,
481.6051941,0.001267464482,481.6051941,0.001194388606,
481.4145203,0.001239426783,481.4145203,0.001271047164,
481.1856689,0.001201371197,481.1856689,0.001154935453,
480.9949951,0.001272085705,480.9949951,0.001241633436,
480.8042297,0.001172040007,480.8042297,0.001120312954,
480.6135254,0.001310511027,480.6135254,0.001312458306,
480.3846741,0.001272137626,480.3846741,0.001214869437,
480.1939087,0.00127540878,480.1939087,0.001220606267,
480.0032349,0.001284469618,480.0032349,0.001256482792,
479.812439,0.0012630251,479.812439,0.001264582737,
479.5835571,0.001333619701,479.5835571,0.001307758735,
479.3927612,0.001311056199,479.3927612,0.001275927993,
479.2019958,0.001324999263,479.2019958,0.001344837015,
479.0111694,0.001315937494,479.0111694,0.001269593369,
478.7822571,0.001251264708,478.7822571,0.001236026059,
478.5914612,0.00127948483,478.5914612,0.00127582415,
478.4006958,0.001329958555,478.4006958,0.001341824885,
478.2097778,0.00128091278,478.2097778,0.001310511027,
477.9808655,0.001263777958,477.9808655,0.001228393987,
477.7900085,0.001286936109,477.7900085,0.001318637864,
477.5992126,0.001221644576,477.5992126,0.001259001088,
477.4083862,0.001284443657,477.4083862,0.001339436043,
477.1793518,0.001371660968,477.1793518,0.001281977282,
476.9884949,0.001268710592,476.9884949,0.001240620972,
476.7975769,0.001234234893,476.7975769,0.001245579333,
476.6067505,0.001310147461,476.6067505,0.001331049134,
476.377655,0.001287299558,476.377655,0.001303189201,
476.1867981,0.001321104472,476.1867981,0.001327440026,
475.9958801,0.001245060121,475.9958801,0.001294880873,
475.8049927,0.001270995243,475.8049927,0.001273877104,
475.6140747,0.001330581727,475.6140747,0.00135950814,
475.3849792,0.001226057648,475.3849792,0.001239037374,
475.1940002,0.00125949434,475.1940002,0.001292310422,
475.0031433,0.001287507359,475.0031433,0.00127273472,
474.8121948,0.001283405232,474.8121948,0.001284988946,
474.5830383,0.00127766747,474.5830383,0.00130968017,
474.3920288,0.001322117168,474.3920288,0.001343512791,
474.2011414,0.00125178392,474.2011414,0.001296853996,
474.0101929,0.001309446408,474.0101929,0.001364234253,
473.7809753,0.001337280846,473.7809753,0.001296412665,
473.5900269,0.001279095421,473.5900269,0.001305655693,
473.3989563,0.001276784809,473.3989563,0.001289947773,
473.2080078,0.001329647028,473.2080078,0.001308823354,
472.9787598,0.00129420578,472.9787598,0.001297840616,
472.7878113,0.001336657675,472.7878113,0.001344187884,
472.5967407,0.001377763459,472.5967407,0.001304643112,
472.4057007,0.001363195595,472.4057007,0.00133299653,
472.1764832,0.001328193001,472.1764832,0.001244956278,
471.9854431,0.00130653847,471.9854431,0.001305629732,
471.794342,0.001315262518,471.794342,0.001336813555,
471.6033325,0.001322636381,471.6033325,0.001290051732,
471.4122314,0.001332762884,471.4122314,0.001403914299,
471.1829834,0.001342370175,471.1829834,0.00127595407,
470.9918823,0.001338942675,470.9918823,0.001341513358,
470.8007813,0.001335177687,470.8007813,0.001357612549,
470.6097412,0.001358105917,470.6097412,0.001325830119,
470.3803711,0.001294854912,470.3803711,0.001337047201,
470.18927,0.00131378253,470.18927,0.001333204331,
469.9980774,0.001282366691,469.9980774,0.001297710813,
469.8070374,0.001287429477,469.8070374,0.001345096622,
469.5776367,0.001353016472,469.5776367,0.001346265199,
469.3865356,0.001345408265,469.3865356,0.001358339679,
469.195343,0.001371349324,469.195343,0.001355067827,
469.0041809,0.001215388533,469.0041809,0.001298801275,
468.8130188,0.001318741706,468.8130188,0.001317703165,
468.5836487,0.001320325537,468.5836487,0.001250719535,
468.3924866,0.001313289162,468.3924866,0.001366181765,
468.2012939,0.001347745187,468.2012939,0.001298931078,
468.0101013,0.001403057249,468.0101013,0.001358677284,
467.7806396,0.001343928161,467.7806396,0.001307628932,
467.589447,0.00139337068,467.589447,0.001377555775,
467.3981934,0.001283820602,467.3981934,0.001319209114,
467.2070007,0.001362857991,467.2070007,0.001394747058,
466.9775085,0.001343460754,466.9775085,0.001427625306,
466.7863159,0.001328089158,466.7863159,0.001297684852,
466.5950012,0.001329491264,466.5950012,0.001328218961,
466.4037781,0.00130199478,466.4037781,0.001326115802,
466.2125549,0.001315651927,466.2125549,0.001315911533,
465.9829712,0.001317183836,465.9829712,0.001268425025,
465.7917175,0.001280108001,465.7917175,0.001285637962,
465.6004333,0.001321286312,465.6004333,0.001282184967,
465.4091797,0.001343408832,465.4091797,0.001335671055,
465.1795959,0.001274474198,465.1795959,0.001344733173,
464.9883118,0.001382100163,464.9883118,0.001387475641,
464.7969971,0.001314950874,464.7969971,0.001296334784,
464.6056519,0.001303396886,464.6056519,0.001341149793,
464.3760681,0.001319702365,464.3760681,0.001362208743,
464.1847229,0.001323908684,464.1847229,0.001314717229,
463.9933777,0.001404927112,463.9933777,0.001372829545,
463.8020935,0.001307577011,463.8020935,0.001263518352,
463.6106873,0.001341928844,463.6106873,0.001295062597,
463.3811035,0.001350549632,463.3811035,0.001315054717,
463.1896667,0.001395863714,463.1896667,0.001341721043,
462.9983215,0.001340760384,462.9983215,0.001346654608,
462.8069763,0.001329413382,462.8069763,0.001338942675,
462.57724,0.001336917398,462.57724,0.001369038248,
462.3858948,0.00140147307,462.3858948,0.001338501344,
462.194458,0.00134333095,462.194458,0.001313704648,
462.0030518,0.001347277896,462.0030518,0.001292725909,
461.8115845,0.001351120882,461.8115845,0.001354340813,
461.5819397,0.001375608146,461.5819397,0.001377919223,
461.3905029,0.001282911864,461.3905029,0.001326920697,
461.1990051,0.001385735814,461.1990051,0.001251394511,
461.0075684,0.001337410766,461.0075684,0.001323675038,
460.777832,0.001374777174,460.777832,0.001400694018,
460.5863342,0.001357508707,460.5863342,0.001328296843,
460.3948975,0.001318767667,460.3948975,0.001327959239,
460.2033997,0.001288493862,460.2033997,0.001329257502,
460.0119324,0.001434481819,460.0119324,0.001399603323,
459.782135,0.001290752669,459.782135,0.001385320327,
459.5906372,0.001402408001,459.5906372,0.001390747726,
459.3991699,0.00137392024,459.3991699,0.001339591807,
459.2076111,0.00135950814,459.2076111,0.001322454656,
458.9778442,0.001359040732,458.9778442,0.001317079994,
458.7862549,0.001364935306,458.7862549,0.001349952421,
458.5947571,0.001413678983,458.5947571,0.001414925558,
458.4031372,0.001362909912,458.4031372,0.00129760697,
458.2116394,0.001443364192,458.2116394,0.001434897305,
457.9817505,0.001430975622,457.9817505,0.001450246782,
457.7902222,0.001289740088,457.7902222,0.001264634659,
457.5986938,0.001326089841,457.5986938,0.001369765378,
457.4071045,0.001429053722,457.4071045,0.00141425035,
457.177124,0.001349121449,457.177124,0.001390280318,
456.9855652,0.001318715746,456.9855652,0.001374932937,
456.7939453,0.001403680537,456.7939453,0.001359845744,
456.602356,0.001346602687,456.602356,0.00136600004,
456.4107666,0.001381710637,456.4107666,0.001347952988,
456.1807861,0.001406069729,456.1807861,0.001420820947,
455.9891968,0.001395084662,455.9891968,0.001347147976,
455.7974854,0.001411030069,455.7974854,0.001426015049,
455.605896,0.001465778681,455.605896,0.001436897088,
455.3758545,0.001386125339,455.3758545,0.001360416994,
455.1842651,0.001413237536,455.1842651,0.001376335276,
454.9926453,0.001446480863,454.9926453,0.001407679869,
454.8009033,0.001504143234,454.8009033,0.001436637365,
454.6092224,0.001382385846,454.6092224,0.001398045104,
454.3792114,0.001454142737,454.3792114,0.001455025747,
454.1875305,0.001441260451,454.1875305,0.001431832672,
453.9958496,0.001397421816,453.9958496,0.001349822618,
453.8041077,0.001369194011,453.8041077,0.001397395856,
453.6123657,0.001395500149,453.6123657,0.001378594432,
453.3823547,0.001414665836,453.3823547,0.001345096622,
453.1905518,0.001415445004,453.1905518,0.001397525775,
452.9988708,0.001427625306,452.9988708,0.001479882514,
452.8071594,0.001441649976,452.8071594,0.00140700466,
452.5770264,0.001370466431,452.5770264,0.001354210894,
452.3852539,0.001414613915,452.3852539,0.001411523437,
452.193512,0.001411965,452.193512,0.001351120882,
452.0017395,0.001399005996,452.0017395,0.00139539619,
451.809906,0.001437312691,451.809906,0.001377841341,
451.579834,0.001399811008,451.579834,0.001388072968,
451.3880005,0.001422742731,451.3880005,0.001451363671,
451.196228,0.001493103686,451.196228,0.001409212127,
451.0043335,0.001469025388,451.0043335,0.00141835364,
450.812561,0.001380853704,450.812561,0.001340344897,
450.5823364,0.001424093265,450.5823364,0.001430586097,
450.390564,0.001447753515,450.390564,0.001424015383,
450.1987915,0.001469285111,450.1987915,0.001352237421,
450.0068665,0.001458038692,450.0068665,0.001423963346,
449.7766418,0.001493908931,449.7766418,0.001437442494,
449.5848694,0.00146923319,449.5848694,0.001419626293,
449.3929749,0.001447701477,449.3929749,0.001389968675,
449.2010498,0.001455051824,449.2010498,0.001424378948,
449.0091858,0.001418275759,449.0091858,0.001361767296,
448.7789612,0.001472973381,448.7789612,0.001388410572,
448.5870972,0.001493986812,448.5870972,0.001430508099,
448.3951721,0.001479882514,448.3951721,0.001385969459,
448.2032776,0.001441727858,448.2032776,0.001397993183,
448.0113525,0.001451727236,448.0113525,0.001429755008,
447.7810364,0.001497337595,447.7810364,0.001423989306,
447.5891113,0.001506169327,447.5891113,0.001450714306,
447.3971252,0.001504428918,447.3971252,0.001456168597,
447.2052002,0.001527625951,447.2052002,0.001486999565,
446.974884,0.001454012818,446.974884,0.001435079146,
446.7829285,0.001490012626,446.7829285,0.001385476091,
446.5909424,0.001510299509,446.5909424,0.001436091959,
446.3990173,0.001462765737,446.3990173,0.001494714059,
446.2070007,0.00147144089,446.2070007,0.00140162895,
445.9766235,0.001472038333,445.9766235,0.001446506823,
445.784668,0.001498194761,445.784668,0.00142881996,
445.5926514,0.001466531889,445.5926514,0.001490584109,
445.4006653,0.0014679085,445.4006653,0.00147159677,
445.2086487,0.001452012919,445.2086487,0.001406900818,
444.9782104,0.001486661844,444.9782104,0.001471544849,
444.7861938,0.001420015818,444.7861938,0.001414458151,
444.5941772,0.001422561007,444.5941772,0.001439546235,
444.4020996,0.001429417287,444.4020996,0.001432975405,
444.210083,0.001505519962,444.210083,0.001541134319,
443.9796143,0.001451649354,443.9796143,0.001504039275,
443.7875977,0.001515286975,443.7875977,0.001535237301,
443.5954895,0.001455986756,443.5954895,0.001531496528,
443.4034119,0.001419236651,443.4034119,0.001473129261,
443.2113342,0.001451519434,443.2113342,0.00145528547,
442.980835,0.001488376176,442.980835,0.001517001423,
442.7886963,0.001491389237,442.7886963,0.001460038591,
442.5965881,0.00148915546,442.5965881,0.001509260503,
442.4045105,0.001478479942,442.4045105,0.001480557839,
442.2124023,0.001407576026,442.2124023,0.00148219429,
441.9819031,0.001483882545,441.9819031,0.001476557809,
441.7897339,0.001509806025,441.7897339,0.001486843685,
441.5975952,0.001524950261,441.5975952,0.001548875822,
441.4054871,0.001519261394,441.4054871,0.001539056073,
441.1748657,0.001513650408,441.1748657,0.001522430568,
440.9827576,0.001490012626,440.9827576,0.001506507047,
440.7905884,0.001552980393,440.7905884,0.001545940293,
440.5983582,0.001542173442,440.5983582,0.001518975594,
440.406189,0.001490350347,440.406189,0.00150157162,
440.1755981,0.001538068871,440.1755981,0.001570568304,
439.9833679,0.001547420979,439.9833679,0.001641784678,
439.7911682,0.001528742956,439.7911682,0.00158761139,
439.598938,0.001502688625,439.598938,0.001531496528,
439.4067688,0.001486298162,439.4067688,0.001492454321,
439.1760559,0.001566021936,439.1760559,0.001604940975,
438.9839172,0.001626662211,438.9839172,0.001590105589,
438.791626,0.001652802108,438.791626,0.001646565739,
438.5994263,0.001598679344,438.5994263,0.001587689389,
438.407196,0.001563398051,438.407196,0.001596938586,
438.1764526,0.001577946707,438.1764526,0.001620738185,
437.9842224,0.001589975669,437.9842224,0.001602316741,
437.7919617,0.00162996212,437.7919617,0.001620348427,
437.5996704,0.001576907467,437.5996704,0.00165046344,
437.4074402,0.001661818824,437.4074402,0.001715403632,
437.1766357,0.001680086832,437.1766357,0.001664521289,
436.984314,0.001645214623,436.984314,0.0016761109,
436.7920532,0.001648020931,436.7920532,0.001763120992,
436.599762,0.001715169754,436.599762,0.001766317873,
436.4074402,0.001613878761,436.4074402,0.001690403442,
436.1766663,0.001748722047,436.1766663,0.001778066275,
435.984314,0.001888806932,435.984314,0.001858727424,
435.7919617,0.001774141449,435.7919617,0.00178700767,
435.5996094,0.001705450239,435.5996094,0.001838372205,
435.4072266,0.001807828317,435.4072266,0.001865148661,
435.1764221,0.001863276935,435.1764221,0.001931213075,
434.9841309,0.001905576559,434.9841309,0.001873207977,
434.791748,0.001903886558,434.791748,0.001987197669,
434.5993347,0.001944135991,434.5993347,0.001994999126,
434.4069824,0.001913116546,434.4069824,0.001993256621,
434.1760864,0.001962441718,434.1760864,0.002022981411,
433.9837341,0.001979344292,433.9837341,0.002067429479,
433.7913208,0.002027402632,433.7913208,0.002078509657,
433.5989075,0.002031199634,433.5989075,0.002131495625,
433.4064941,0.00210579508,433.4064941,0.002159070456,
433.1755981,0.002110477304,433.1755981,0.002134331036,
432.9831238,0.002217425965,432.9831238,0.002212638734,
432.7906799,0.002242872957,432.7906799,0.00227313512,
432.5982666,0.002179960953,432.5982666,0.00223027938,
432.4058228,0.002276049694,432.4058228,0.002308786614,
432.1748047,0.002387021668,432.1748047,0.002464515623,
431.9823914,0.002467431361,431.9823914,0.002497995738,
431.7899475,0.002440565731,431.7899475,0.00253220764,
431.5974426,0.002548350953,431.5974426,0.00260704523,
431.4049377,0.002650849754,431.4049377,0.002608972369,
431.1739807,0.002756967908,431.1739807,0.002735554706,
430.9814758,0.002726046601,430.9814758,0.002799823647,
430.7889709,0.002786745084,430.7889709,0.002863424597,
430.5964661,0.002876792103,430.5964661,0.002807848155,
430.4039001,0.002968004905,430.4039001,0.003019613447,
430.2114563,0.003070602659,430.2114563,0.003049017629,
429.9804077,0.003135416657,429.9804077,0.003178518498,
429.7878418,0.003246921347,429.7878418,0.003302997444,
429.5952759,0.003332890337,429.5952759,0.003333098954,
429.4027405,0.003478079801,429.4027405,0.003457674757,
429.2101746,0.003622456454,429.2101746,0.003637622343,
428.979126,0.003732545767,428.979126,0.00380623294,
428.7865295,0.0038488789,428.7865295,0.003804535372,
428.5939331,0.003848121502,428.5939331,0.003951632883,
428.4013672,0.004106096923,428.4013672,0.004094938748,
428.2087708,0.004183140583,428.2087708,0.00417914195,
427.9776306,0.004475000314,427.9776306,0.004545177799,
427.7850647,0.004655160941,427.7850647,0.004670808092,
427.5924072,0.004798464011,427.5924072,0.00482293684,
427.3998108,0.005051714368,427.3998108,0.005027228501,
427.2072144,0.005171387922,427.2072144,0.005210526288,
426.9760132,0.005328671075,426.9760132,0.005349819548,
426.7834167,0.005648863502,426.7834167,0.005693264771,
426.5907593,0.005859316792,426.5907593,0.005924469326,
426.3981018,0.00612009177,426.3981018,0.006079479586,
426.2054443,0.00640193373,426.2054443,0.006431200076,
425.9742737,0.006715452764,425.9742737,0.006766246632,
425.7815552,0.007026777603,425.7815552,0.007029408123,
425.5888977,0.007367944811,425.5888977,0.007412258536,
425.3962097,0.00758550223,425.3962097,0.007655287627,
425.2035217,0.007980259135,425.2035217,0.008099265397,
425.0108032,0.008243076503,425.0108032,0.008283574134,
424.7795715,0.008759098127,424.7795715,0.008793937974,
424.586853,0.009174329229,424.586853,0.009185671806,
424.394104,0.009637330659,424.394104,0.009685424156,
424.201416,0.0101041384,424.201416,0.01023944467,
424.008667,0.01052121539,424.008667,0.01052553859,
423.7774353,0.01091076806,423.7774353,0.0109500289,
423.5846863,0.01142003108,423.5846863,0.01146383025,
423.3918762,0.0118870046,423.3918762,0.01189498603,
423.1991882,0.01248167083,423.1991882,0.01252379268,
423.0063782,0.0133726513,423.0063782,0.01339697186,
422.7750854,0.01409450825,422.7750854,0.01412028633,
422.5823059,0.01459038723,422.5823059,0.01461067982,
422.3894958,0.01520102099,422.3894958,0.01520024333,
422.1967163,0.01576389931,422.1967163,0.01582744159,
422.0039368,0.01640572958,422.0039368,0.01645624451,
421.8110962,0.01738134213,421.8110962,0.01740028337,
421.5797119,0.01841435209,421.5797119,0.01841483824,
421.3869324,0.0191122368,421.3869324,0.01909911819,
421.1940613,0.01992356591,421.1940613,0.01997392252,
421.0012207,0.02084845491,421.0012207,0.02103045769,
420.8083801,0.02186138742,420.8083801,0.02191341296,
420.5769958,0.02338223904,420.5769958,0.02331840061,
420.3841553,0.02421861514,420.3841553,0.02430464886,
420.1912537,0.02517835423,420.1912537,0.02523878962,
419.9984741,0.02624310553,419.9984741,0.02628292516,
419.8055725,0.02741650678,419.8055725,0.02760980837,
419.5741272,0.02892941236,419.5741272,0.0290409606,
419.3812256,0.03050477989,419.3812256,0.03059570678,
419.188385,0.03180155158,419.188385,0.03186049312,
418.9954529,0.03293887153,418.9954529,0.03290994093,
418.8025513,0.03391762078,418.8025513,0.03403583542,
418.6096191,0.03525198624,418.6096191,0.03531608358,
418.3781128,0.03686351702,418.3781128,0.03695065528,
418.1852417,0.03889408335,418.1852417,0.03910981119,
417.9922791,0.04095575213,417.9922791,0.04106718674,
417.7993469,0.04265070334,417.7993469,0.04263636842,
417.6064148,0.04400373623,417.6064148,0.04406670481,
417.3748169,0.04605296254,417.3748169,0.04605845734,
417.1819153,0.04768992588,417.1819153,0.04778634384,
416.9889526,0.0498820506,416.9889526,0.04996620864,
416.7959595,0.05238795653,416.7959595,0.05251545459,
416.6029968,0.05458320677,416.6029968,0.05464059487,
416.4100647,0.05649830773,416.4100647,0.05659322441,
416.1784363,0.05922444537,416.1784363,0.05925096944,
415.9854431,0.06162650511,415.9854431,0.06174722314,
415.79245,0.06416781247,415.79245,0.06429332495,
415.5993958,0.06688418239,415.5993958,0.06688150018,
415.4064636,0.0690985322,415.4064636,0.06926239282,
415.1747742,0.07180402428,415.1747742,0.07185295224,
414.9818115,0.07437495887,414.9818115,0.07456043363,
414.7887573,0.07722777873,414.7887573,0.07732102275,
414.5957031,0.08030065894,414.5957031,0.08029511571,
414.4026184,0.08370365947,414.4026184,0.08382778615,
414.2096252,0.08637146652,414.2096252,0.08649515361,
413.9779053,0.08912373334,413.9779053,0.08929701895,
413.7848816,0.0916133225,413.7848816,0.09177014232,
413.5918274,0.09462022781,413.5918274,0.0947997719,
413.3987427,0.09746678174,413.3987427,0.09762553126,
413.205658,0.1019970551,413.205658,0.1021597683,
412.973938,0.1063866392,412.973938,0.1066006348,
412.7808533,0.1092155948,412.7808533,0.1093988121,
412.5877075,0.1121155992,412.5877075,0.1123401746,
412.3946228,0.1153728291,412.3946228,0.1155750528,
412.2015381,0.1180898249,412.2015381,0.1182483435,
412.0083923,0.1225268319,412.0083923,0.1227213517,
411.7766113,0.1275266707,411.7766113,0.1277193874,
411.5834656,0.1306638271,411.5834656,0.1308378577,
411.3903809,0.1337478757,411.3903809,0.1338629276,
411.1972046,0.137062043,411.1972046,0.1373045594,
411.0040588,0.1406122595,411.0040588,0.1405537277,
410.7723083,0.1446636617,410.7723083,0.1447038352,
410.5791016,0.1480062902,410.5791016,0.1482148916,
410.3859253,0.1508573592,410.3859253,0.1508530676,
410.192688,0.1536296457,410.192688,0.1537341923,
409.9995117,0.1568600982,409.9995117,0.1569114774,
409.806366,0.160077557,409.806366,0.1602087021,
409.5744934,0.1642768979,409.5744934,0.1644578129,
409.3813171,0.1675332636,409.3813171,0.1676592976,
409.1880798,0.1700609624,409.1880798,0.1701318473,
408.9948425,0.1720962077,408.9948425,0.1722688228,
408.8016052,0.1742251068,408.8016052,0.1743227392,
408.608429,0.1765420586,408.608429,0.1767351925,
408.3764954,0.1798255891,408.3764954,0.1799482405,
408.1833191,0.1828897744,408.1833191,0.1829306483,
407.9900513,0.1850357205,407.9900513,0.1850683838,
407.7967529,0.1865355223,407.7967529,0.1865216047,
407.6035156,0.1880601048,407.6035156,0.1882460713,
407.4102478,0.1896085292,407.4102478,0.1897893846,
407.1783142,0.1914242357,407.1783142,0.1913579553,
406.9850464,0.1931979656,406.9850464,0.1931078285,
406.7917175,0.1942924708,406.7917175,0.1944057792,
406.5984192,0.1952308118,406.5984192,0.1951780617,
406.4051208,0.1959625632,406.4051208,0.1959779263,
406.1731873,0.1967777312,406.1731873,0.1967108697,
405.9798584,0.1970421076,405.9798584,0.1969901174,
405.786499,0.1972153634,405.786499,0.1972493529,
405.5932007,0.197346881,405.5932007,0.1972770393,
405.3998718,0.1973110884,405.3998718,0.1972070336,
405.2065125,0.1970155686,405.2065125,0.196923092,
404.9745178,0.1964988261,404.9745178,0.1963290721,
404.7811584,0.195918709,404.7811584,0.1958936751,
404.5878296,0.1949309111,404.5878296,0.1948089898,
404.3944702,0.1939059943,404.3944702,0.1938346326,
404.2010803,0.1930036098,404.2010803,0.192849949,
404.0077209,0.1920819581,404.0077209,0.1919126362,
403.7756348,0.1907497495,403.7756348,0.1905488372,
403.5822754,0.1893289387,403.5822754,0.1891079992,
403.3888855,0.187414214,403.3888855,0.1871152073,
403.1954651,0.1851902157,403.1954651,0.1848358363,
403.0020447,0.1833692938,403.0020447,0.1830807924,
402.8086243,0.181761995,402.8086243,0.1814869493,
402.5765381,0.1794964671,402.5765381,0.1792410612,
402.3830872,0.1775771677,402.3830872,0.1773979068,
402.1896667,0.175313428,402.1896667,0.175087899,
401.9962158,0.172415033,401.9962158,0.1721358746,
401.8027649,0.1697983891,401.8027649,0.169584319,
401.6093445,0.1675830185,401.6093445,0.1672841907,
401.3771973,0.1646622568,401.3771973,0.1644457877,
401.1837463,0.1620055735,401.1837463,0.1618351787,
400.9902344,0.1595102847,400.9902344,0.159127146,
400.7967529,0.1564578414,400.7967529,0.1560983658,
400.6032715,0.1542196721,400.6032715,0.1538415998,
400.40979,0.1521413624,400.40979,0.1517519951,
400.1775818,0.1492865235,400.1775818,0.14901191,
399.9841003,0.1464250088,399.9841003,0.1461990923,
399.7905884,0.1443118751,399.7905884,0.143980816,
399.5971069,0.1411413848,399.5971069,0.1408317089,
399.4035339,0.1387328357,399.4035339,0.1385073215,
399.210022,0.1368051618,399.210022,0.1365505159,
398.9777832,0.1346896738,398.9777832,0.1343624294,
398.7842407,0.1325013936,398.7842407,0.1321864128,
398.5906982,0.130509004,398.5906982,0.1302745491,
398.3971252,0.1275785863,398.3971252,0.1272845715,
398.2035828,0.1248893812,398.2035828,0.1245350316,
398.0100098,0.122961998,398.0100098,0.1227862239,
397.777771,0.1210351586,397.777771,0.1206867099,
397.584198,0.1191962212,397.584198,0.1190358922,
397.3905945,0.1175058186,397.3905945,0.1173250526,
397.196991,0.1155169532,397.196991,0.1152424961,
397.0033875,0.1132606864,397.0033875,0.1131365225,
396.8098145,0.1115895361,396.8098145,0.1113446355,
396.5774536,0.1098974198,396.5774536,0.1096370444,
396.3838501,0.1082712561,396.3838501,0.1081048176,
396.1902466,0.106977731,396.1902466,0.1067886725,
395.996582,0.1056094021,395.996582,0.1054449305,
395.8029785,0.1043079644,395.8029785,0.1041424796,
395.609314,0.1034671217,395.609314,0.1033063531,
395.3769836,0.1025158837,395.3769836,0.1023320705,
395.1832886,0.1017279997,395.1832886,0.1015498787,
394.9896545,0.1008699238,394.9896545,0.1007745788,
394.79599,0.100217402,394.79599,0.1001100466,
394.602356,0.09945182502,394.602356,0.09931069613,
394.4086609,0.09888391942,394.4086609,0.09876854718,
394.1762085,0.09849572927,394.1762085,0.09836113453,
393.9825439,0.09816420823,393.9825439,0.09809768945,
393.7888794,0.09785026312,393.7888794,0.09767444432,
393.5951538,0.09762368351,393.5951538,0.09749659151,
393.4014282,0.09745482355,393.4014282,0.09735839069,
393.2077332,0.09740937501,393.2077332,0.09740163386,
392.9752808,0.09741300344,392.9752808,0.09731718898,
392.7815552,0.0974881947,392.7815552,0.09748172015,
392.5878296,0.09767282009,392.5878296,0.09754438698,
392.394104,0.09782931954,392.394104,0.097758241,
392.2003479,0.09817423671,392.2003479,0.09811391681,
392.0065918,0.09860891849,392.0065918,0.0985231027,
391.7741089,0.09911515564,391.7741089,0.09918511659,
391.5803223,0.09968805313,391.5803223,0.09957425296,
391.3865356,0.1002626866,391.3865356,0.1002777219,
391.1927795,0.1009645611,391.1927795,0.1008762866,
390.9990234,0.1017086282,390.9990234,0.1017230898,
390.8052063,0.1024995297,390.8052063,0.1024257541,
390.5726624,0.1034292802,390.5726624,0.1034332216,
390.3788757,0.1041248068,390.3788757,0.1041719913,
390.1850891,0.1051414087,390.1850891,0.1050384343,
389.991272,0.1059367433,389.991272,0.1059552729,
389.7974548,0.1070444658,389.7974548,0.1069824323,
389.6036072,0.1081886888,389.6036072,0.1081459895,
389.3710327,0.1092025116,389.3710327,0.1091564447,
389.1771851,0.109966673,389.1771851,0.1100207642,
388.9833679,0.1109064147,388.9833679,0.1108895093,
388.7895203,0.1118471622,388.7895203,0.1118376479,
388.5956726,0.1129564196,388.5956726,0.1129731387,
388.401825,0.1144366935,388.401825,0.1144056618,
388.2079468,0.1153930202,388.2079468,0.1153769493,
387.9753113,0.1164117381,387.9753113,0.1163556948,
387.7814331,0.1172086373,387.7814331,0.1172199622,
387.5875244,0.1182472929,387.5875244,0.1181874797,
387.3936768,0.1189889088,387.3936768,0.1190204322,
387.1997681,0.1202445328,387.1997681,0.1202399209,
387.0058594,0.121366635,387.0058594,0.121317789,
386.7731934,0.1222684532,386.7731934,0.1222482175,
386.5792542,0.1230486557,386.5792542,0.1230933368,
386.385376,0.1238925159,386.385376,0.1237926707,
386.1914368,0.1245470718,386.1914368,0.1244950369,
385.9974976,0.1253961623,385.9974976,0.1253130734,
385.8035889,0.1260087341,385.8035889,0.1258902103,
385.5708313,0.126577571,385.5708313,0.1265003532,
385.3768921,0.1269776672,385.3768921,0.126941219,
385.1829529,0.1274315566,385.1829529,0.1273595244,
384.9889832,0.1277879626,384.9889832,0.1276877373,
384.7950134,0.1281325668,384.7950134,0.1280277073,
384.6010437,0.128409341,384.6010437,0.1283396631,
384.4070435,0.128583923,384.4070435,0.1284613907,
384.1742859,0.1286646128,384.1742859,0.1285142601,
383.9802856,0.1286404282,383.9802856,0.1285683662,
383.7862549,0.1287934035,383.7862549,0.1286590397,
383.5923157,0.1288046539,383.5923157,0.1286074966,
383.3982849,0.1285731792,383.3982849,0.1284288913,
383.2042542,0.1283391714,383.2042542,0.1282119453,
382.9714355,0.128185004,382.9714355,0.1279228181,
382.7774353,0.1279440075,382.7774353,0.1277532578,
382.5834045,0.1276032031,382.5834045,0.1274767816,
382.3893433,0.127273351,382.3893433,0.1271103919,
382.195282,0.126959011,382.195282,0.1267672032,
382.0012817,0.126558736,382.0012817,0.1263843626,
381.8072205,0.1260379404,381.8072205,0.1259210259,
381.5743408,0.1256302297,381.5743408,0.1254736334,
381.3802795,0.1251625121,381.3802795,0.1250096709,
381.1861877,0.1248353422,381.1861877,0.1246284917,
380.9921265,0.1244173646,380.9921265,0.1242573336,
380.7980347,0.1238853857,380.7980347,0.1237852722,
380.6039124,0.1236228272,380.6039124,0.1233790666,
380.3710327,0.1231490523,380.3710327,0.1229372248,
380.1769104,0.1226346567,380.1769104,0.1224626526,
379.9828491,0.1222046912,379.9828491,0.1219990179,
379.7886963,0.1217365041,379.7886963,0.1214780062,
379.594574,0.1213667095,379.594574,0.1211572587,
379.4004822,0.1210153252,379.4004822,0.1208741814,
379.2063293,0.1207197234,379.2063293,0.1205583513,
378.9733887,0.1205269918,378.9733887,0.1202468872,
378.7792358,0.1202376634,378.7792358,0.1200122088,
378.585083,0.1199114174,378.585083,0.1197463572,
378.3909302,0.119703725,378.3909302,0.1195066646,
378.1967468,0.1195437536,378.1967468,0.1193091497,
378.002594,0.1195144728,378.002594,0.1193681285,
377.8084106,0.1194983795,377.8084106,0.1193009391,
377.5754089,0.1193000525,377.5754089,0.1191381887,
377.3812256,0.1192451715,377.3812256,0.1190942526,
377.1870422,0.1193179041,377.1870422,0.1191360727,
376.9928284,0.1192259267,376.9928284,0.1190142035,
376.7986145,0.1192745715,376.7986145,0.1190969422,
376.6044312,0.1192763746,376.6044312,0.1190937087,
376.3713379,0.1193988323,376.3713379,0.1192237437,
376.1771545,0.1196261868,376.1771545,0.1194557101,
375.9829407,0.1195759326,375.9829407,0.119474113,
375.7886658,0.1196525097,375.7886658,0.119525075,
375.5944519,0.1198750511,375.5944519,0.1197384074,
375.4002075,0.1199657023,375.4002075,0.1198102012,
375.2059631,0.1201078743,375.2059631,0.1200510114,
374.9728699,0.1204435304,374.9728699,0.1202498227,
374.778595,0.1206526384,374.778595,0.1206035987,
374.5843506,0.1209005117,374.5843506,0.120836027,
374.3900757,0.1210274324,374.3900757,0.1210116297,
374.1958008,0.1212633029,374.1958008,0.1212278828,
374.0014954,0.1214637309,374.0014954,0.1214645877,
373.8072205,0.1217660382,373.8072205,0.1216124967,
373.5740662,0.1220157817,373.5740662,0.1219542474,
373.3797607,0.1223094463,373.3797607,0.1222063377,
373.1854553,0.1227071732,373.1854553,0.1224544868,
372.9911499,0.1227599531,372.9911499,0.1226952225,
372.796814,0.1229823753,372.796814,0.1229027733,
372.6025085,0.1232543439,372.6025085,0.1231228933,
372.4081421,0.1234799773,372.4081421,0.1232364327,
372.1749878,0.1238685846,372.1749878,0.1238314733,
371.9806519,0.1240167618,371.9806519,0.123991482,
371.7862854,0.1242004037,371.7862854,0.1241784915,
371.5919495,0.1244632825,371.5919495,0.1243601069,
371.3976135,0.1247439459,371.3976135,0.124598518,
371.2032166,0.1250029057,371.2032166,0.1249156818,
370.9699707,0.1252927631,370.9699707,0.125195533,
370.7756042,0.1256054193,370.7756042,0.1254761517,
370.5812073,0.1256612837,370.5812073,0.1255494952,
370.3868103,0.1259458661,370.3868103,0.1257603765,
370.1924438,0.1261420995,370.1924438,0.1260141283,
369.9980469,0.126504302,369.9980469,0.126173079,
369.8036194,0.1265504807,369.8036194,0.126404345,
369.5703125,0.1265286952,369.5703125,0.1264553368,
369.3759155,0.1268995851,369.3759155,0.1267368346,
369.1815186,0.1270096749,369.1815186,0.1268491447,
368.9870911,0.1270022243,368.9870911,0.1268116385,
368.7926331,0.1269997209,368.7926331,0.1268719137,
368.5982056,0.12728782,368.5982056,0.1270267367,
368.4037781,0.1271736026,368.4037781,0.1269672364,
368.1704102,0.1270043999,368.1704102,0.1267199218,
367.9759827,0.1267544776,367.9759827,0.1266531795,
367.7814941,0.1266925037,367.7814941,0.1265396774,
367.5870667,0.1264597625,367.5870667,0.1262599975,
367.3925476,0.1262881756,367.3925476,0.1260525733,
367.1980591,0.1259271801,367.1980591,0.1258437485,
367.0036316,0.1253429204,367.0036316,0.1251470149,
366.7702026,0.124932453,366.7702026,0.1247271821,
366.5757141,0.1242888644,366.5757141,0.1240098402,
366.3812256,0.1237165704,366.3812256,0.123331368,
366.1867065,0.1228424534,366.1867065,0.1225403547,
365.992218,0.1219824925,365.992218,0.121650517,
365.7976685,0.1212759316,365.7976685,0.1209284142,
365.6031494,0.1205575019,365.6031494,0.12027096,
365.3697205,0.1193796843,365.3697205,0.1191000119,
365.1752014,0.1184721366,365.1752014,0.1180464402,
364.9806213,0.1174339652,364.9806213,0.1169857979,
364.7861023,0.1160554737,364.7861023,0.1156451479,
364.5915527,0.1150097623,364.5915527,0.1144360527,
364.3969727,0.1140983403,364.3969727,0.1134501919,
364.2024231,0.1130070835,364.2024231,0.1124574691,
364.0078735,0.1117775738,364.0078735,0.1112951338,
363.7743835,0.1103568152,363.7743835,0.1097088233,
363.5797729,0.1082490012,363.5797729,0.1076217219,
363.3851929,0.1068379357,363.3851929,0.1061172932,
363.1906433,0.1056564823,363.1906433,0.1050154269,
362.9960327,0.1046999767,362.9960327,0.1040135548,
362.8014221,0.1037375927,362.8014221,0.1029877439,
362.6068115,0.1028633714,362.6068115,0.1020788103,
362.373291,0.101476036,362.373291,0.1006643772,
362.1786499,0.1002262682,362.1786499,0.09946989268,
361.9840088,0.09925730526,361.9840088,0.09845039248,
361.7893982,0.0982092917,361.7893982,0.09739716351,
361.5947876,0.09717059135,361.5947876,0.09630905837,
361.400116,0.0960264802,361.400116,0.09511825442,
361.2054749,0.09491680562,361.2054749,0.09401208907,
360.9718933,0.09352861345,360.9718933,0.09261736274,
360.7772217,0.09265680611,360.7772217,0.09179444611,
360.5825806,0.09196217358,360.5825806,0.09106051922,
360.3879089,0.09110412747,360.3879089,0.0901940912,
360.1932373,0.09019574523,360.1932373,0.08927399665,
359.9985657,0.08914506435,359.9985657,0.08824332803,
359.8038635,0.08811374754,359.8038635,0.08717814833,
359.5702515,0.08720010519,359.5702515,0.08634225279,
359.3755493,0.08660194278,359.3755493,0.08575031906,
359.1808167,0.08598636836,359.1808167,0.0850160718,
358.9861145,0.0851963535,358.9861145,0.08433555812,
358.7914124,0.08468952775,358.7914124,0.08377535641,
358.5966797,0.08379977942,358.5966797,0.08295515925,
358.401947,0.08317449689,358.401947,0.08243094385,
358.2072449,0.08278351277,358.2072449,0.08201158792,
357.9735413,0.08219565451,357.9735413,0.0815776065,
357.7788086,0.08176246285,357.7788086,0.08109373599,
357.5840454,0.08116437495,357.5840454,0.08072204888,
357.3892822,0.08051912487,357.3892822,0.08018149436,
357.1945496,0.07986350358,357.1945496,0.07955569774,
356.9997864,0.07943533361,356.9997864,0.07912757993,
356.8049927,0.07889134437,356.8049927,0.07862043381,
356.5712585,0.07834388316,356.5712585,0.07824890316,
356.3764954,0.07799313217,356.3764954,0.07785496116,
356.1817322,0.07755733281,356.1817322,0.07744664699,
355.9869385,0.07719895989,355.9869385,0.07715263963,
355.7921143,0.07698156685,355.7921143,0.07688505948,
355.5973206,0.07667174935,355.5973206,0.07669695467,
355.4025269,0.07632950693,355.4025269,0.07630222291,
355.1687622,0.07598697394,355.1687622,0.07590406388,
354.9739075,0.0754500553,354.9739075,0.07542079687,
354.7791138,0.07508280128,354.7791138,0.07515650243,
354.5842896,0.07493349165,354.5842896,0.07494127005,
354.3894348,0.074706994,354.3894348,0.07465615124,
354.1945801,0.07452523708,354.1945801,0.07450646162,
353.9997253,0.07431744784,353.9997253,0.07414500415,
353.8049011,0.07415124029,353.8049011,0.07409824431,
353.5710449,0.07368538529,353.5710449,0.07363498956,
353.3762207,0.07345668972,353.3762207,0.07339455187,
353.1813354,0.07313895971,353.1813354,0.07321015745,
352.9864502,0.0729887262,352.9864502,0.07285901904,
352.7915955,0.0727532953,352.7915955,0.07263828814,
352.5966797,0.07256706059,352.5966797,0.07261307538,
352.401825,0.07206833363,352.401825,0.07205693424,
352.2069397,0.07186739892,352.2069397,0.07179125398,
351.9730225,0.07139436901,351.9730225,0.07141450793,
351.7781677,0.07109247148,351.7781677,0.07108744234,
351.5832214,0.07089329511,351.5832214,0.07084834576,
351.3883057,0.07069055736,351.3883057,0.07063402236,
351.1933899,0.07029449195,351.1933899,0.07022234052,
350.9984436,0.06998313963,350.9984436,0.06983232498,
350.8035278,0.06968718022,350.8035278,0.06956377625,
350.5696106,0.06917523593,350.5696106,0.069238469,
350.3746338,0.06881603599,350.3746338,0.06881227344,
350.179718,0.06845510006,350.179718,0.06834264845,
349.9847717,0.06800063699,349.9847717,0.06791548431,
349.7897949,0.06761167198,349.7897949,0.06751168519,
349.5948181,0.06683659554,349.5948181,0.06688666344,
349.3998413,0.06676275283,349.3998413,0.06661138684,
349.204895,0.06611140072,349.204895,0.06610453129,
348.9708862,0.06551322341,348.9708862,0.06544610113,
348.7758789,0.06496876478,348.7758789,0.06483176351,
348.5809021,0.06404557824,348.5809021,0.06394470483,
348.3859253,0.06341015548,348.3859253,0.06334970891,
348.190918,0.0628894195,348.190918,0.06286844611,
347.9959106,0.06229491159,347.9959106,0.06226043031,
347.8009033,0.06156138331,347.8009033,0.06153337657,
347.605896,0.06102897972,347.605896,0.06093601137,
347.3718262,0.05991860852,347.3718262,0.05985341966,
347.1768494,0.05895576626,347.1768494,0.05893860012,
346.981781,0.05840969458,346.981781,0.05831879377,
346.7867432,0.05760347471,346.7867432,0.05761512369,
346.5917053,0.05684699118,346.5917053,0.05689992756,
346.396637,0.05611146614,346.396637,0.05611385405,
346.2015991,0.05515578389,346.2015991,0.05515957624,
346.0065308,0.05437124148,346.0065308,0.05428080261,
345.7724609,0.05344587192,345.7724609,0.05342406034,
345.5773621,0.05283496156,345.5773621,0.05274255946,
345.3822937,0.05212939903,345.3822937,0.05206811056,
345.1872253,0.05139531568,345.1872253,0.05126284808,
344.9921265,0.05037848279,344.9921265,0.05042438954,
344.7970276,0.04963278398,344.7970276,0.04950444773,
344.6019287,0.04895207658,344.6019287,0.04886504263,
344.4068604,0.04838301241,344.4068604,0.04836964235,
344.1726685,0.04758778214,344.1726685,0.04754359275,
343.9776001,0.04701464623,343.9776001,0.04692030326,
343.7824402,0.04630510509,343.7824402,0.04624152184,
343.5873108,0.04530841112,343.5873108,0.04516147077,
343.3922119,0.04453929141,343.3922119,0.04446888342,
343.197052,0.04401138425,343.197052,0.04391786084,
343.0019226,0.04345304519,343.0019226,0.04339731485,
342.8067932,0.0428703092,342.8067932,0.04278083146,
342.5725708,0.04207608849,342.5725708,0.04208566993,
342.3774414,0.04144122452,342.3774414,0.04133472964,
342.1822815,0.04074470326,342.1822815,0.04070729017,
341.9870911,0.04014682025,341.9870911,0.04013083503,
341.7919312,0.03983446583,341.7919312,0.03970845416,
341.5967407,0.0392293036,341.5967407,0.03909749165,
341.4015503,0.03873508796,341.4015503,0.03865998611,
341.2063904,0.0381613858,341.2063904,0.03813538328,
340.9721069,0.0376146324,340.9721069,0.03752603382,
340.7769775,0.03717830777,340.7769775,0.03710967302,
340.5817566,0.03681437299,340.5817566,0.03671684116,
340.3865356,0.03628510237,340.3865356,0.03631282225,
340.1912842,0.03578688577,340.1912842,0.03592216969,
339.9960938,0.03547341004,339.9960938,0.03540465608,
339.8008728,0.03489308432,339.8008728,0.03487426415,
339.6056213,0.03460206464,339.6056213,0.03450892121,
339.3713379,0.03425776213,339.3713379,0.03414945677,
339.1761169,0.03390426934,339.1761169,0.03385705873,
338.980896,0.0337048471,338.980896,0.03359260038,
338.785614,0.03327061236,338.785614,0.03325518593,
338.590332,0.03272370249,338.590332,0.03263860568,
338.3951111,0.03248534352,338.3951111,0.03245544061,
338.1998291,0.03222029656,338.1998291,0.03215442225,
338.0045471,0.03188353032,338.0045471,0.03173713386,
337.7702332,0.03158235177,337.7702332,0.03142005578,
337.5749207,0.03133090213,337.5749207,0.03129952028,
337.3796387,0.0308368355,337.3796387,0.03077614494,
337.1843567,0.03056054376,337.1843567,0.03053449281,
336.9890442,0.03029039502,336.9890442,0.03023796715,
336.7937622,0.03001689166,336.7937622,0.02988263033,
336.5984497,0.02972099558,336.5984497,0.02977022901,
336.4031372,0.02946946025,336.4031372,0.02945167385,
336.1687622,0.02909138799,336.1687622,0.02903896756,
335.9734192,0.02884738147,335.9734192,0.02875883877,
335.7781067,0.02860082872,335.7781067,0.028530607,
335.5827637,0.02834261581,335.5827637,0.02831739001,
335.3873901,0.02817451023,335.3873901,0.02813633904,
335.1920776,0.02796743065,335.1920776,0.02790749818,
334.9967346,0.02773393132,334.9967346,0.02765085548,
334.8013611,0.02734973095,334.8013611,0.02728715539,
334.605957,0.02718198113,334.605957,0.0271764975,
334.3715515,0.02699096315,334.3715515,0.02690569125,
334.176178,0.02675988898,334.176178,0.02679774538,
333.9808044,0.02653124742,333.9808044,0.02650012635,
333.7854004,0.02628353052,333.7854004,0.02617015876,
333.5900269,0.02594158053,333.5900269,0.02592385747,
333.3946533,0.02570177987,333.3946533,0.02565133199,
333.1992493,0.02550276555,333.1992493,0.02546180971,
333.0038452,0.02532162331,333.0038452,0.02524296008,
332.7693481,0.02494207211,332.7693481,0.02492142841,
332.5739441,0.02475296892,332.5739441,0.02460117638,
332.3785095,0.02437865175,332.3785095,0.02438264899,
332.1831055,0.02409012988,332.1831055,0.02402123623,
331.9876709,0.02375457622,331.9876709,0.02370872721,
331.7922668,0.02356156334,331.7922668,0.02351827547,
331.5968018,0.02321350202,331.5968018,0.02318928018,
331.4013367,0.02295462415,331.4013367,0.02299695462,
331.2058716,0.02267380804,331.2058716,0.02261683904,
330.9713745,0.02227389254,330.9713745,0.02226705477,
330.7758789,0.02200958505,330.7758789,0.02200672403,
330.5804749,0.02170505002,330.5804749,0.02173495851,
330.3849792,0.02141742781,330.3849792,0.02139466628,
330.1894836,0.0211254824,330.1894836,0.02098098397,
329.9940186,0.02091035433,329.9940186,0.02085323445,
329.7985535,0.02042807452,329.7985535,0.02045398764,
329.6030579,0.02026907913,329.6030579,0.02019436285,
329.3684692,0.01979853772,329.3684692,0.01986297034,
329.1729431,0.01972912997,329.1729431,0.01973189414,
328.977478,0.01953968406,328.977478,0.01954775304,
328.7819519,0.01926152781,328.7819519,0.01933210529,
328.5864258,0.01878069714,328.5864258,0.01877648011,
328.3909302,0.01846223883,328.3909302,0.0184985958,
328.1954041,0.01838891208,328.1954041,0.01836692914,
327.9998474,0.01805533282,327.9998474,0.01812935807,
327.8043518,0.01791168936,327.8043518,0.01787114516,
327.5696716,0.01763656735,327.5696716,0.01761616021,
327.3741455,0.01731471717,327.3741455,0.01737951115,
327.1785889,0.01713792793,327.1785889,0.01711719297,
326.9830322,0.01695760153,326.9830322,0.01696018502,
326.7874756,0.01682583801,326.7874756,0.01678773575,
326.5919189,0.01659357175,326.5919189,0.01663536578,
326.3963318,0.01647963561,326.3963318,0.01649595611,
326.2007751,0.01631616615,326.2007751,0.01629168168,
326.005188,0.01616535895,326.005188,0.01615203172,
325.7705078,0.01593159139,325.7705078,0.01599360071,
325.5749207,0.0159010347,325.5749207,0.01591983065,
325.379303,0.0156649407,325.379303,0.01572135463,
325.1836853,0.01559879351,325.1836853,0.01556061208,
324.9880676,0.01545402873,324.9880676,0.01544407755,
324.7924805,0.01543629821,324.7924805,0.01547277905,
324.5968628,0.01533966791,324.5968628,0.01531486306,
324.4012451,0.01530293003,324.4012451,0.01527716219,
324.2056274,0.01526871696,324.2056274,0.01525228098,
323.9708862,0.01512928866,323.9708862,0.01510328986,
323.775238,0.01506330259,323.775238,0.0151173342,
323.5795593,0.01503052842,323.5795593,0.01500287466,
323.3839722,0.01490620524,323.3839722,0.01500689331,
323.1882935,0.01476065349,323.1882935,0.01485509332,
322.9926453,0.01487271953,322.9926453,0.01490789372,
322.7969666,0.0147454422,322.7969666,0.01482908428,
322.6013184,0.01474838797,322.6013184,0.01474900451,
322.4056702,0.01472517103,322.4056702,0.01476630475,
322.1708374,0.01465648878,322.1708374,0.01468299609,
321.9751587,0.01461814903,321.9751587,0.01466082595,
321.7795105,0.01467298158,321.7795105,0.01460776199,
321.5838013,0.01463994198,321.5838013,0.01463838946,
321.388092,0.01452662516,321.388092,0.01455355342,
321.1923828,0.0145180067,321.1923828,0.01456575934,
320.9966736,0.01456506364,320.9966736,0.01459844504,
320.8009949,0.01451487467,320.8009949,0.01453213859,
320.6052551,0.01452250313,320.6052551,0.01456881128,
320.3703918,0.0144901704,320.3703918,0.0145187024,
320.1746826,0.0145435147,320.1746826,0.01459504571,
319.9789734,0.01451706979,319.9789734,0.0145431133,
319.7832336,0.01458393596,319.7832336,0.01469528675,
319.5874634,0.01464468148,319.5874634,0.01478205249,
319.3917542,0.014736793,319.3917542,0.01467753388,
319.1960144,0.01463003643,319.1960144,0.0147072291,
319.0002441,0.0147678582,319.0002441,0.01479260437,
318.8044739,0.01490208041,318.8044739,0.0149305854,
318.5695801,0.01486304961,318.5695801,0.01486915722,
318.3738098,0.01500951964,318.3738098,0.01501308382,
318.178009,0.01502104197,318.178009,0.01506783254,
317.9822388,0.01516383979,317.9822388,0.01509669703,
317.786438,0.01530373469,317.786438,0.01527962927,
317.5906677,0.01522236038,317.5906677,0.01525088679,
317.3948669,0.01547959261,317.3948669,0.01544700097,
317.1990662,0.01559221931,317.1990662,0.01565600373,
317.0032959,0.0157107003,317.0032959,0.01571985148,
316.7683105,0.01575710811,316.7683105,0.01569486409,
316.5725098,0.01588801108,316.5725098,0.01589856297,
316.3766785,0.01602668874,316.3766785,0.01602333225,
316.1808472,0.01629622281,316.1808472,0.01629434153,
315.9850464,0.01644678041,315.9850464,0.01646000892,
315.7892151,0.01655998081,315.7892151,0.0166288577,
315.5933533,0.01664020866,315.5933533,0.01669225655,
315.397522,0.01672066376,315.397522,0.01680926234,
315.2016907,0.01694807224,315.2016907,0.01697789691,
314.9666748,0.01723487861,314.9666748,0.01728344336,
314.770813,0.01738220453,314.770813,0.01744487882,
314.5749512,0.01756246388,314.5749512,0.01761168614,
314.3790894,0.01780657656,314.3790894,0.01780012995,
314.1832275,0.01794195734,314.1832275,0.017928252,
313.9873352,0.01809975132,313.9873352,0.01813861541,
313.7914429,0.01829802059,313.7914429,0.01829132438,
313.5956116,0.01853719726,313.5956116,0.0185808558,
313.3996887,0.01878680475,313.3996887,0.01883248799,
313.2037659,0.01905262098,313.2037659,0.01909524947,
312.9687195,0.01927024126,312.9687195,0.01924126036,
312.7727966,0.01940001547,312.7727966,0.01948807761,
312.5769043,0.01959576458,312.5769043,0.01960356347,
312.3809814,0.01986898668,312.3809814,0.01999812759,
312.1850586,0.02012212574,312.1850586,0.02012773976,
311.9891663,0.02034497634,311.9891663,0.02040948905,
311.7932434,0.02066642046,311.7932434,0.0206630528,
311.59729,0.02089487202,311.59729,0.02088979259,
311.4013672,0.02110200375,311.4013672,0.02111491188,
311.1661987,0.02136970311,311.1661987,0.02138759568,
310.9702759,0.02173131146,310.9702759,0.02180506848,
310.7743225,0.02193941362,310.7743225,0.02204000391,
310.5783386,0.02220419794,310.5783386,0.02223275043,
310.3824158,0.0223930385,310.3824158,0.02241514437,
310.1864319,0.02264301851,310.1864319,0.02272200398,
309.990448,0.02299619094,309.990448,0.02305755019,
309.7944641,0.02326213941,309.7944641,0.02332484722,
309.5985107,0.02355773747,309.5985107,0.02362179942,
309.4025269,0.0238083601,309.4025269,0.02386294305,
309.1673279,0.02415117808,309.1673279,0.02417211421,
308.9713135,0.02434390783,308.9713135,0.02438248508,
308.7753296,0.02463407815,308.7753296,0.02475902624,
308.5793457,0.02502772957,308.5793457,0.02519124746,
308.3833313,0.02533753775,308.3833313,0.02544100396,
308.1873169,0.02570469119,308.1873169,0.02571243607,
307.991272,0.02592218108,307.991272,0.02598409355,
307.7952881,0.02617815882,307.7952881,0.02624624036,
307.5992432,0.02654519863,307.5992432,0.02653386071,
307.4032288,0.0269065164,307.4032288,0.02699253336,
307.1679688,0.02753045224,307.1679688,0.02758285776,
306.9719238,0.02784724161,306.9719238,0.02792276256,
306.7758789,0.02815443091,306.7758789,0.02819022723,
306.5798035,0.02852986194,306.5798035,0.02856983617,
306.3837585,0.0288969297,306.3837585,0.02896958962,
306.1877136,0.0293470826,306.1877136,0.02936010063,
305.9916687,0.02996086329,305.9916687,0.02997198515,
305.7955627,0.03031246178,305.7955627,0.03034829721,
305.5994873,0.030607678,305.5994873,0.0306609273,
305.4034119,0.03115001135,305.4034119,0.03117940947,
305.1681213,0.03172616288,305.1681213,0.0317867063,
304.9720154,0.03226744384,304.9720154,0.03234928474,
304.7759399,0.03295244277,304.7759399,0.03302438557,
304.5798645,0.0334963724,304.5798645,0.03358143941,
304.383728,0.03402645513,304.383728,0.03407214582,
304.1876221,0.03461299464,304.1876221,0.03463856503,
303.9915161,0.03520698473,303.9915161,0.03524954244,
303.7954407,0.03582202643,303.7954407,0.03578584641,
303.5992737,0.03679836914,303.5992737,0.03696779162,
303.4031677,0.03786556795,303.4031677,0.03791056201,
303.1678162,0.03880822286,303.1678162,0.03889932111,
302.9716797,0.03962833062,302.9716797,0.03964483738,
302.7755127,0.04056615755,302.7755127,0.04054046795,
302.5793762,0.0413149707,302.5793762,0.04132257402,
302.3832092,0.04253700376,302.3832092,0.0424728319,
302.1871033,0.04380889982,302.1871033,0.04381757602,
301.9909363,0.044885993,301.9909363,0.0449010022,
301.7947388,0.04590314999,301.7947388,0.04585237056,
301.5986023,0.04699093476,301.5986023,0.04700042307,
301.4024048,0.04820627347,301.4024048,0.04822316766,
301.1670227,0.04993966594,301.1670227,0.04995453358,
300.9708252,0.05145965889,300.9708252,0.0514741987,
300.7745972,0.05278009176,300.7745972,0.05286890268,
300.5784607,0.05414102599,300.5784607,0.05404389277,
300.3822632,0.05525293201,300.3822632,0.05540000647,
300.1860352,0.05719603971,300.1860352,0.05709839612,
299.9898376,0.05846756324,299.9898376,0.05857523158,

pyranine in water, sample prepared on Jan-24th,
pyranine in water, sample prepared on Jan-24th
Collection Time: 1/31/2020 2:31:35 PM
Operator Name  : Cameron Slaten
Scan Version 5.1.0.1016
Parameter List :
Instrument  Cary 60
Instrument Version  2.00
Start (nm)  550.0
Stop (nm)  300.0
X Mode  Nanometers
Y Mode  Abs
UV-Vis Scan Rate (nm/min)  60.000
UV-Vis Data Interval (nm)  0.20
UV-Vis Ave. Time (sec)  0.2000
Beam Mode  Dual Beam
Baseline Correction  On
Baseline Type  Baseline correction
Baseline File Name
Baseline Std Ref File Name
Cycle Mode  Off
Method Log     :
Method Name    :
Date/Time stamp: 1/31/2020 2:21:16 PM
Method Modifications:
UVVIS SAT Changed: 1/31/2020 2:23:17 PM, Old:0.0125, New:0.2000
Common SAT Changed: 1/31/2020 2:23:17 PM, Old:0.0125, New:0.2000
Comment Changed: 1/31/2020 2:23:46 PM, Old:, New:Pyranine in 1-butanol rerun 1-30-20
Operator Changed: 1/31/2020 2:23:46 PM, Old:, New:Cameron Slaten
X Start nm Changed: 1/31/2020 2:23:46 PM, Old:  800.0, New:  550.0
X Stop nm Changed: 1/31/2020 2:23:46 PM, Old:  200.0, New:  300.0
Common Interval nm Changed: 1/31/2020 2:23:46 PM, Old:     5.00, New:     0.20
Baseline Correction Changed: 1/31/2020 2:23:46 PM, Old:0, New:1
End Method Modifications
<Current Wavelength> , 300.6

pyranine in 1-butanol, sample prepared on Jan-24th, 2nd run,
pyranine in 1-butanol, sample prepared on Jan-24th, 2nd run
Collection Time: 1/31/2020 2:37:00 PM
Operator Name  : Cameron Slaten
Scan Version 5.1.0.1016
Parameter List :
Instrument  Cary 60
Instrument Version  2.00
Start (nm)  550.0
Stop (nm)  300.0
X Mode  Nanometers
Y Mode  Abs
UV-Vis Scan Rate (nm/min)  60.000
UV-Vis Data Interval (nm)  0.20
UV-Vis Ave. Time (sec)  0.2000
Beam Mode  Dual Beam
Baseline Correction  On
Baseline Type  Baseline correction
Baseline File Name
Baseline Std Ref File Name
Cycle Mode  Off
Method Log     :
Method Name    :
Date/Time stamp: 1/31/2020 2:21:16 PM
Method Modifications:
UVVIS SAT Changed: 1/31/2020 2:23:17 PM, Old:0.0125, New:0.2000
Common SAT Changed: 1/31/2020 2:23:17 PM, Old:0.0125, New:0.2000
Comment Changed: 1/31/2020 2:23:46 PM, Old:, New:Pyranine in 1-butanol rerun 1-30-20
Operator Changed: 1/31/2020 2:23:46 PM, Old:, New:Cameron Slaten
X Start nm Changed: 1/31/2020 2:23:46 PM, Old:  800.0, New:  550.0
X Stop nm Changed: 1/31/2020 2:23:46 PM, Old:  200.0, New:  300.0
Common Interval nm Changed: 1/31/2020 2:23:46 PM, Old:     5.00, New:     0.20
Baseline Correction Changed: 1/31/2020 2:23:46 PM, Old:0, New:1
End Method Modifications
<Current Wavelength> , 300.8

