Baseline 100%T,,Pyranine in d_H2O,,Pyranine in d_H2O1,,
Wavelength (nm),Abs,Wavelength (nm),Abs,Wavelength (nm),Abs,
550.0012207,0.0400618203,550.0012207,0.002585196868,550.0012207,0.002721019322,
549.8133545,0.039885059,549.8133545,0.002611264121,549.8133545,0.002817305736,
549.5878296,0.03984434158,549.5878296,0.002577462699,549.5878296,0.002725135069,
549.3999634,0.03970768675,549.3999634,0.002548298799,549.3999634,0.002723650308,
549.2119751,0.03962019458,549.2119751,0.002629676135,549.2119751,0.002734486712,
548.9864502,0.04025952518,548.9864502,0.002630145056,548.9864502,0.002672675764,
548.7984619,0.04013767838,548.7984619,0.002564521041,548.7984619,0.002810297301,
548.6104736,0.04003340378,548.6104736,0.002653037664,548.6104736,0.002841276582,
548.3849487,0.03993264586,548.3849487,0.0026456411,548.3849487,0.002759885741,
548.1968994,0.0398311764,548.1968994,0.002666711342,548.1968994,0.002765434561,
548.0089722,0.03970890865,548.0089722,0.002671425464,548.0089722,0.002816654509,
547.7833862,0.03958772495,547.7833862,0.002660512459,547.7833862,0.002787526697,
547.5953369,0.03954638168,547.5953369,0.002560901688,547.5953369,0.002713647671,
547.4073486,0.03949472308,547.4073486,0.002552282764,547.4073486,0.00275504007,
547.1817017,0.03934384137,547.1817017,0.002597123384,547.1817017,0.002710287459,
546.9936523,0.03934970871,546.9936523,0.002550564241,546.9936523,0.002679291414,
546.805603,0.03924165666,546.805603,0.002577436855,546.805603,0.002730058273,
546.6175537,0.03922247514,546.6175537,0.002496069297,546.6175537,0.002691689413,
546.3918457,0.03908757865,546.3918457,0.002541112481,546.3918457,0.002727323212,
546.2037964,0.03898837045,546.2037964,0.002541607013,546.2037964,0.002660694765,
546.015686,0.038839221,546.015686,0.002629910596,546.015686,0.002734955633,
545.789978,0.03874768317,545.789978,0.002601237968,545.789978,0.002740295837,
545.6018677,0.03867619857,545.6018677,0.00259449333,545.6018677,0.00270971423,
545.4138184,0.03863349929,545.4138184,0.002566994866,545.4138184,0.002722738544,
545.1880493,0.03850984201,545.1880493,0.002566526178,545.1880493,0.002771686995,
544.999939,0.03835672885,544.999939,0.002621342428,544.999939,0.002845497569,
544.8118286,0.03825955465,544.8118286,0.002658142475,544.8118286,0.002717294265,
544.5860596,0.03812973201,544.5860596,0.002589858137,544.5860596,0.002773588756,
544.3978271,0.03801130503,544.3978271,0.002629988827,544.3978271,0.002836638596,
544.2097168,0.03790417686,544.2097168,0.002682521008,544.2097168,0.002797557041,
543.9838867,0.03786132857,543.9838867,0.002577228472,543.9838867,0.002772103762,
543.7957764,0.03774819896,543.7957764,0.002619415289,543.7957764,0.002772728913,
543.607605,0.03765209392,543.607605,0.002614076715,543.607605,0.00271396013,
543.3817139,0.03757237643,543.3817139,0.002546710661,543.3817139,0.002686948981,
543.1934814,0.03745063022,543.1934814,0.002611784963,543.1934814,0.002769420389,
543.0053101,0.03801376,543.0053101,0.002622175962,543.0053101,0.00273354887,
542.8171387,0.03790197521,542.8171387,0.00264069275,542.8171387,0.002800683491,
542.5911865,0.03772349283,542.5911865,0.002726359293,542.5911865,0.00289545022,
542.4029541,0.03764079884,542.4029541,0.002676999196,542.4029541,0.002846800489,
542.2147217,0.03757136315,542.2147217,0.002640796825,542.2147217,0.002805451164,
541.9888306,0.03745596483,541.9888306,0.002648558002,541.9888306,0.002802533098,
541.8005371,0.03745088354,541.8005371,0.002536946442,541.8005371,0.002712761983,
541.6123047,0.03738994151,541.6123047,0.002505025361,541.6123047,0.002687990898,
541.3863525,0.03732435033,541.3863525,0.002513461048,541.3863525,0.002689319197,
541.1980591,0.03730781749,541.1980591,0.002447047736,541.1980591,0.002631421201,
541.0097656,0.03659096733,541.0097656,0.002464281395,541.0097656,0.002640718594,
540.7837524,0.03650964424,540.7837524,0.002480734838,540.7837524,0.002652959432,
540.595459,0.03644770756,540.595459,0.002497318899,540.595459,0.002626004163,
540.4071655,0.03640359268,540.4071655,0.002477376256,540.4071655,0.002659236314,
540.1810913,0.0362711139,540.1810913,0.002480474534,540.1810913,0.002632150427,
539.9928589,0.03608680516,539.9928589,0.002561292145,539.9928589,0.002648219466,
539.8044434,0.03597737104,539.8044434,0.002608373528,539.8044434,0.002731569111,
539.6160889,0.0359017849,539.6160889,0.00258707162,539.6160889,0.002715861658,
539.3900146,0.03581170738,539.3900146,0.002603972331,539.3900146,0.002742197365,
539.2017212,0.03573235869,539.2017212,0.002603816101,539.2017212,0.002747068647,
539.0133057,0.0356435515,539.0133057,0.002564807422,539.0133057,0.002744463738,
538.7872314,0.03545386344,538.7872314,0.002683328465,538.7872314,0.002842396963,
538.5988159,0.03537679464,538.5988159,0.002672415227,538.5988159,0.002810766222,
538.4104004,0.03534997627,538.4104004,0.002653063741,538.4104004,0.00277856458,
538.1843262,0.03521018475,538.1843262,0.002755587222,538.1843262,0.002833355684,
537.9958496,0.03515196592,537.9958496,0.002679760102,537.9958496,0.002828405239,
537.8074341,0.03505174443,537.8074341,0.002702915808,537.8074341,0.002849223791,
537.5812988,0.03498112038,537.5812988,0.002634442179,537.5812988,0.002774526598,
537.3928223,0.03493255749,537.3928223,0.002635301556,537.3928223,0.002760406584,
537.2044067,0.03490127623,537.2044067,0.002602592111,537.2044067,0.002784400247,
537.0159302,0.03487804905,537.0159302,0.002560537076,537.0159302,0.00272474438,
536.7897339,0.0348222889,536.7897339,0.002584233182,536.7897339,0.002713725669,
536.6012573,0.03481095657,536.6012573,0.002562203677,536.6012573,0.002688694047,
536.4127197,0.03473975509,536.4127197,0.002556657186,536.4127197,0.002712579677,
536.1865234,0.03466351703,536.1865234,0.002633426571,536.1865234,0.002754857764,
535.9980469,0.03470470384,535.9980469,0.002571629826,535.9980469,0.002700415207,
535.8095093,0.03458863497,535.8095093,0.002614831785,535.8095093,0.002770983614,
535.583252,0.03450171649,535.583252,0.002708229702,535.583252,0.002824001946,
535.3947754,0.03449855,535.3947754,0.002643557498,535.3947754,0.002761552809,
535.2061768,0.03438578919,535.2061768,0.002719378332,535.2061768,0.002839009743,
535.0176392,0.03493553028,535.0176392,0.002745427657,535.0176392,0.002896805294,
534.7913208,0.03488562256,534.7913208,0.002776688896,534.7913208,0.00288367155,
534.6027832,0.03481241688,534.6027832,0.00277960673,534.6027832,0.002968135057,
534.4141846,0.03478436917,534.4141846,0.002789480612,534.4141846,0.002951116068,
534.1879272,0.03478765115,534.1879272,0.002753320849,534.1879272,0.002888075542,
533.9993286,0.03475133702,533.9993286,0.002699008677,533.9993286,0.002800553106,
533.8106689,0.03473010659,533.8106689,0.002653037664,533.8106689,0.002745323349,
533.5843506,0.03476852551,533.5843506,0.002584519796,533.5843506,0.002672884148,
533.395752,0.0348392278,533.395752,0.002531478414,533.395752,0.002660955302,
533.2070923,0.03484840319,533.2070923,0.002530619269,533.2070923,0.002644911874,
532.9807739,0.03420964256,532.9807739,0.002519397298,532.9807739,0.002653558506,
532.7920532,0.0341558978,532.7920532,0.002581707435,532.7920532,0.002702472964,
532.6033936,0.03413946182,532.6033936,0.002658767393,532.6033936,0.002714116359,
532.4147339,0.03415573016,532.4147339,0.002630535746,532.4147339,0.002726359293,
532.1883545,0.03408538923,532.1883545,0.002655642107,532.1883545,0.002791226143,
531.9995728,0.03407665342,531.9995728,0.002666086191,531.9995728,0.002766216174,
531.8109741,0.03403560817,531.8109741,0.002665148582,531.8109741,0.002863632981,
531.5845337,0.03404092789,531.5845337,0.002684839303,531.5845337,0.002830619924,
531.395752,0.03403535858,531.395752,0.002670071088,531.395752,0.00286040199,
531.2070923,0.03403043002,531.2070923,0.002743135206,531.2070923,0.002868974814,
530.9805908,0.03462348133,530.9805908,0.00280083972,530.9805908,0.002898420906,
530.7918701,0.03470784426,530.7918701,0.002732767491,530.7918701,0.002867124742,
530.6031494,0.03469592705,530.6031494,0.002769133775,530.6031494,0.00292226579,
530.4143677,0.03471247107,530.4143677,0.002758895746,530.4143677,0.002943036612,
530.1879272,0.03471171483,530.1879272,0.002790470608,530.1879272,0.002979994053,
529.9990845,0.03469870239,529.9990845,0.002817618428,529.9990845,0.003004182363,
529.8103027,0.03469889984,529.8103027,0.002867984585,529.8103027,0.003021385986,
529.5837402,0.03473377973,529.5837402,0.002850005403,529.5837402,0.003006189363,
529.3950195,0.03478529677,529.3950195,0.002757775597,529.3950195,0.00287788664,
529.2062378,0.03484012559,529.2062378,0.002649521688,529.2062378,0.002851230092,
529.017395,0.03490495309,529.017395,0.002616134007,529.017395,0.002777678892,
528.7908325,0.03503002599,528.7908325,0.002600352513,528.7908325,0.002720941091,
528.6019287,0.03509400785,528.6019287,0.002549054101,528.6019287,0.002715575276,
528.4130859,0.03517327085,528.4130859,0.002539654262,528.4130859,0.002723441925,
528.1865234,0.03521167114,528.1865234,0.002598165069,528.1865234,0.002756993985,
527.9976807,0.03528871015,527.9976807,0.002655589953,527.9976807,0.002808473539,
527.8088379,0.03532588482,527.8088379,0.002639598912,527.8088379,0.002788099693,
527.5821533,0.0353522785,527.5821533,0.002694476629,527.5821533,0.002843569499,
527.3932495,0.03540442884,527.3932495,0.002689579735,527.3932495,0.002819572575,
527.2043457,0.03545175493,527.2043457,0.002714481205,527.2043457,0.00285698846,
527.0155029,0.03478507325,527.0155029,0.002757488983,527.0155029,0.002900245134,
526.7888184,0.03489858285,526.7888184,0.002765434561,526.7888184,0.002911763499,
526.5998535,0.03496408835,526.5998535,0.002721175551,526.5998535,0.002837993437,
526.4110107,0.03499857336,526.4110107,0.002745036734,526.4110107,0.002868219279,
526.1842041,0.03507262468,526.1842041,0.002731308574,526.1842041,0.002819911344,
525.9953613,0.035151124,525.9953613,0.002709245542,525.9953613,0.00284492434,
525.8063354,0.03518778458,525.8063354,0.002745375503,525.8063354,0.002869026968,
525.5796509,0.03532448038,525.5796509,0.002696221694,525.5796509,0.002833173377,
525.390625,0.03542013094,525.390625,0.002718153875,525.390625,0.0028480771,
525.2017212,0.03550006822,525.2017212,0.002743551973,525.2017212,0.002789480612,
525.0127563,0.03555982187,525.0127563,0.002711824141,525.0127563,0.002806910314,
524.7859497,0.03567224368,524.7859497,0.002693773247,524.7859497,0.002798651345,
524.5969238,0.03568120673,524.5969238,0.002741389908,524.5969238,0.002879788866,
524.407959,0.03576482087,524.407959,0.002816003049,524.407959,0.002866916358,
524.1811523,0.03585730493,524.1811523,0.002797661116,524.1811523,0.002934775082,
523.9920654,0.03592689335,523.9920654,0.002819338115,523.9920654,0.002940482693,
523.8031006,0.03605313599,523.8031006,0.002769290237,523.8031006,0.002887945157,
523.6140137,0.03609560803,523.6140137,0.002777548507,523.6140137,0.0029060042,
523.387146,0.0362194255,523.387146,0.00273456471,523.387146,0.002908896888,
523.1981201,0.03635329381,523.1981201,0.00273190788,523.1981201,0.002875176491,
523.0090332,0.03637350351,523.0090332,0.002820275957,523.0090332,0.002989012515,
522.7821655,0.03649418801,522.7821655,0.002793753287,522.7821655,0.002987657208,
522.5930786,0.03658680245,522.5930786,0.002806519391,522.5930786,0.002921718406,
522.4039917,0.03665906936,522.4039917,0.002828483237,522.4039917,0.002937381389,
522.2149048,0.03675859049,522.2149048,0.002843022346,522.2149048,0.002947415225,
521.9879761,0.0369332917,521.9879761,0.002848233562,521.9879761,0.00294181169,
521.7988892,0.03706774861,521.7988892,0.002768534701,521.7988892,0.002876323182,
521.6096802,0.03703688085,521.6096802,0.002835935215,521.6096802,0.002970923902,
521.3828125,0.03720027581,521.3828125,0.002838514745,521.3828125,0.002924246481,
521.1936035,0.03726068512,521.1936035,0.002868948737,521.1936035,0.003008770058,
521.0045166,0.03736491501,521.0045166,0.002849875018,521.0045166,0.002965633059,
520.8153076,0.03746290505,520.8153076,0.002841094276,520.8153076,0.002964486135,
520.5883789,0.03761006147,520.5883789,0.002913926495,520.5883789,0.003061869415,
520.399231,0.03776115924,520.399231,0.002835778752,520.399231,0.002968265442,
520.2099609,0.0378639847,520.2099609,0.002866785973,520.2099609,0.003014634829,
519.9829712,0.03789234161,519.9829712,0.002952888142,519.9829712,0.003098889254,
519.7937622,0.03801240399,519.7937622,0.002944939304,519.7937622,0.003116226988,
519.6045532,0.0381349586,519.6045532,0.002919711871,519.6045532,0.003085697303,
519.4153442,0.03824171796,519.4153442,0.00292375125,519.4153442,0.003041979158,
519.1882935,0.03842278942,519.1882935,0.002850474324,519.1882935,0.002952288836,
518.9990845,0.0384833701,518.9990845,0.002901443746,518.9990845,0.003014478367,
518.8098755,0.03862835094,518.8098755,0.002819754882,518.8098755,0.002978638746,
518.5827637,0.03878645599,518.5827637,0.002828795929,518.5827637,0.002992270514,
518.3934937,0.03887047246,518.3934937,0.002914369572,518.3934937,0.00300220144,
518.2042236,0.03906755149,518.2042236,0.002824366558,518.2042236,0.002958595986,
518.0149536,0.03906333074,518.0149536,0.002977101132,518.0149536,0.003065623576,
517.7878418,0.03921343759,517.7878418,0.002814908745,517.7878418,0.003061269876,
517.5985718,0.03933786228,517.5985718,0.002856259001,517.5985718,0.002994616516,
517.4092407,0.03943071514,517.4092407,0.002827936085,517.4092407,0.003013722599,
517.1821289,0.03956515342,517.1821289,0.002896153601,517.1821289,0.00305206771,
516.9927368,0.03970652446,516.9927368,0.002829369158,516.9927368,0.003069221042,
516.8034668,0.03976019472,516.8034668,0.002925419249,516.8034668,0.003070576815,
516.6141357,0.0398369357,516.6141357,0.002954530064,516.6141357,0.003089581849,
516.3869629,0.03997036442,516.3869629,0.002941681538,516.3869629,0.003071176354,
516.1975708,0.04009162635,516.1975708,0.002841406967,516.1975708,0.003076755209,
516.0082397,0.04018645734,516.0082397,0.002902903128,516.0082397,0.003058011411,
515.7810059,0.04039476067,515.7810059,0.002935270313,515.7810059,0.003029805608,
515.5916748,0.04047328979,515.5916748,0.002963339444,515.5916748,0.003086166689,
515.4022217,0.04059566185,515.4022217,0.002888388233,515.4022217,0.003005902749,
515.2128906,0.04064787552,515.2128906,0.002972461749,515.2128906,0.003104885807,
514.9855957,0.04075621814,514.9855957,0.00291814818,514.9855957,0.003091511084,
514.7962646,0.04088674486,514.7962646,0.002926122863,514.7962646,0.003086687997,
514.6068726,0.0409880951,514.6068726,0.002983929822,514.6068726,0.003129263408,
514.3795166,0.04112870619,514.3795166,0.002951116068,514.3795166,0.003112863749,
514.1900635,0.0411911197,514.1900635,0.002959846985,514.1900635,0.003163577057,
514.0006104,0.04136060923,514.0006104,0.002926018555,514.0006104,0.003056108253,
513.8112183,0.04145589098,513.8112183,0.00294139469,513.8112183,0.003106710734,
513.5838623,0.04155002162,513.5838623,0.003019561525,513.5838623,0.003179483116,
513.3944092,0.04167967662,513.3944092,0.002981922822,513.3944092,0.003079336137,
513.204895,0.04172689468,513.204895,0.003049538936,513.204895,0.003211245174,
513.0155029,0.0418936871,513.0155029,0.002907176968,513.0155029,0.003079727292,
512.7880859,0.04201072454,512.7880859,0.002939257771,512.7880859,0.003137554741,
512.5985718,0.04206650332,512.5985718,0.002992870053,512.5985718,0.003133174498,
512.4090576,0.04216653109,512.4090576,0.002939804923,512.4090576,0.00315692788,
512.1817017,0.04231988266,512.1817017,0.002914604032,512.1817017,0.003087131307,
511.9921265,0.04244845361,511.9921265,0.002933393931,511.9921265,0.003132809419,
511.8026733,0.04248090833,511.8026733,0.002939935308,511.8026733,0.003141257213,
511.6130981,0.0426068157,511.6130981,0.002947727917,511.6130981,0.003098237561,
511.3857117,0.04269431531,511.3857117,0.002888492309,511.3857117,0.00313911913,
511.1960754,0.04277960211,511.1960754,0.002973373979,511.1960754,0.003147984389,
511.0065613,0.04291325435,511.0065613,0.002965502674,511.0065613,0.00317789265,
510.7790833,0.04301982,510.7790833,0.002973347902,510.7790833,0.003151426092,
510.5895081,0.04315411672,510.5895081,0.0028933133,510.5895081,0.003112837672,
510.3998718,0.04320484027,510.3998718,0.002970063826,510.3998718,0.003126943018,
510.2103271,0.04328742623,510.2103271,0.002948822454,510.2103271,0.003201127052,
509.9828186,0.04335312173,509.9828186,0.002991697052,509.9828186,0.003164202906,
509.7932129,0.04358999431,509.7932129,0.002919764025,509.7932129,0.003111586208,
509.6036377,0.04354669526,509.6036377,0.003058741335,509.6036377,0.003221363528,
509.414032,0.04368476197,509.414032,0.003039450618,509.414032,0.003193225479,
509.1864319,0.04379572719,509.1864319,0.00298578036,509.1864319,0.003142769448,
508.9968262,0.04393963143,508.9968262,0.002952601528,508.9968262,0.00315971789,
508.8071594,0.0439857468,508.8071594,0.002933576237,508.8071594,0.003156875726,
508.5795593,0.04408925399,508.5795593,0.00299047213,508.5795593,0.003227570327,
508.3898926,0.04420737177,508.3898926,0.002914682264,508.3898926,0.00320694223,
508.2002258,0.04426529631,508.2002258,0.002961358754,508.2002258,0.003193460172,
508.0106201,0.04353038594,508.0106201,0.002982183592,508.0106201,0.003243426792,
507.7829285,0.04363292456,507.7829285,0.003097246867,507.7829285,0.003164620139,
507.5932617,0.0436578542,507.5932617,0.002937172772,507.5932617,0.003332577413,
507.4035034,0.04387553409,507.4035034,0.002978378208,507.4035034,0.003210462863,
507.2138367,0.04392178729,507.2138367,0.002983408514,507.2138367,0.003205429763,
506.986145,0.04469170421,506.986145,0.003081343602,506.986145,0.003275767202,
506.7964478,0.04480838031,506.7964478,0.002975458978,506.7964478,0.003274410963,
506.60672,0.04483033717,506.60672,0.003077485133,506.60672,0.003403717885,
506.3790283,0.04494257271,506.3790283,0.003068100195,506.3790283,0.00326314359,
506.18927,0.04499226809,506.18927,0.003102487186,506.18927,0.003357854905,
505.9995117,0.04513932392,505.9995117,0.002986171516,505.9995117,0.003249607747,
505.8097839,0.04518125951,505.8097839,0.003103243187,505.8097839,0.003321073949,
505.5820007,0.04526930675,505.5820007,0.003119903151,505.5820007,0.00331390067,
505.3922424,0.04536306486,505.3922424,0.003079805523,505.3922424,0.003352846252,
505.2024841,0.04547609761,505.2024841,0.00295580714,505.2024841,0.003247025888,
505.0126648,0.04551036283,505.0126648,0.003079023445,505.0126648,0.003392316867,
504.7848816,0.04567044601,504.7848816,0.002979994053,504.7848816,0.003304067068,
504.5950928,0.04572442546,504.5950928,0.00300934352,504.5950928,0.00330693624,
504.4052734,0.04574829713,504.4052734,0.003102252493,504.4052734,0.003348489758,
504.2154541,0.04582630843,504.2154541,0.003154789796,504.2154541,0.003360333154,
503.9876404,0.04519315064,503.9876404,0.003082881682,503.9876404,0.003274254501,
503.797821,0.0452401787,503.797821,0.003123031929,503.797821,0.003400821937,
503.6079102,0.04532657191,503.6079102,0.003102252493,503.6079102,0.00334436819,
503.380127,0.04534516111,503.380127,0.003207411617,503.380127,0.003385977354,
503.1901855,0.04540536553,503.1901855,0.003131714417,503.1901855,0.00334616797,
503.0003662,0.04547980428,503.0003662,0.003102356801,503.0003662,0.003405231284,
502.8104553,0.04555831105,502.8104553,0.00316939177,502.8104553,0.003398343455,
502.5825806,0.0456921868,502.5825806,0.00313609466,502.5825806,0.003380003152,
502.3926697,0.04567502066,502.3926697,0.003170669544,502.3926697,0.003449403448,
502.2027588,0.04574323446,502.2027588,0.003185141832,502.2027588,0.00345793576,
502.0128784,0.04580450058,502.0128784,0.003188427538,502.0128784,0.003418667708,
501.7849121,0.04582978785,501.7849121,0.003285104642,501.7849121,0.003460492706,
501.5950012,0.04587316886,501.5950012,0.003259987803,501.5950012,0.003483429085,
501.4050903,0.04593180865,501.4050903,0.003290373366,501.4050903,0.003436174709,
501.2151489,0.04607466236,501.2151489,0.003180004656,501.2151489,0.003458300838,
500.9871826,0.04683578387,500.9871826,0.003327177837,500.9871826,0.003550053341,
500.7972107,0.04688627273,500.7972107,0.003251876682,500.7972107,0.003557830816,
500.6072083,0.04689016566,500.6072083,0.00339312572,500.6072083,0.003623657161,
500.3792725,0.04698539525,500.3792725,0.003334429348,500.3792725,0.003582651494,
500.18927,0.04710817337,500.18927,0.003300284967,500.18927,0.003505296772,
499.9993286,0.04707923532,499.9993286,0.003375333501,499.9993286,0.003607447725,
499.8092651,0.04714348912,499.8092651,0.003355950583,499.8092651,0.00358813256,
499.5812988,0.04716244712,499.5812988,0.003484133631,499.5812988,0.003632219043,
499.3911743,0.04722737521,499.3911743,0.003429286648,499.3911743,0.003579832613,
499.2012329,0.04726417363,499.2012329,0.00343802711,499.2012329,0.003636656562,
499.0111694,0.04733823985,499.0111694,0.003401656868,499.0111694,0.003669574624,
498.7831116,0.04746472463,498.7831116,0.003426234005,498.7831116,0.003569366643,
498.5930481,0.04744728655,498.5930481,0.003439410124,498.5930481,0.003731162054,
498.4029846,0.04749591276,498.4029846,0.003423598828,498.4029846,0.003641381394,
498.2129211,0.04759012163,498.2129211,0.00342404237,498.2129211,0.00360504631,
497.9848328,0.04760860652,497.9848328,0.003503496293,497.9848328,0.003731240286,
497.7947693,0.04764936492,497.7947693,0.003447368043,497.7947693,0.003678267822,
497.6046753,0.0477354303,497.6046753,0.00345764868,497.6046753,0.003634490073,
497.4145508,0.04778810591,497.4145508,0.003468451323,497.4145508,0.003623422235,
497.1864319,0.04776759073,497.1864319,0.003490187693,497.1864319,0.003702756017,
496.9963379,0.04780940339,496.9963379,0.003463910893,496.9963379,0.003694767132,
496.8061829,0.0478976965,496.8061829,0.003486534348,496.8061829,0.003697874025,
496.578064,0.04794906452,496.578064,0.003472913289,496.578064,0.003738368396,
496.3879089,0.04799465463,496.3879089,0.003513569245,496.3879089,0.0037726257,
496.1977539,0.04801023751,496.1977539,0.003525443142,496.1977539,0.003748446703,
496.0075684,0.04807176441,496.0075684,0.003533246228,496.0075684,0.003742676461,
495.7794495,0.04809009656,495.7794495,0.003572733374,495.7794495,0.00381680904,
495.5892029,0.04812072217,495.5892029,0.00357210706,495.5892029,0.003812839743,
495.3990784,0.0481630899,495.3990784,0.003611806547,495.3990784,0.003766149981,
495.2088928,0.04822987691,495.2088928,0.003569914727,495.2088928,0.003818663303,
494.9806213,0.04817538336,494.9806213,0.003744504182,494.9806213,0.003901532618,
494.7904358,0.04820850119,494.7904358,0.003752441611,494.7904358,0.003896413371,
494.6002197,0.04830150306,494.6002197,0.00363647379,494.6002197,0.003896413371,
494.4100342,0.04828828201,494.4100342,0.003758603707,494.4100342,0.003899443196,
494.1817017,0.0483254604,494.1817017,0.003804431064,494.1817017,0.003961298149,
493.9915161,0.04833905771,493.9915161,0.003802106949,493.9915161,0.004031261895,
493.8012695,0.04834088311,493.8012695,0.003891920904,493.8012695,0.004077692516,
493.6110229,0.04831929877,493.6110229,0.00391960796,493.6110229,0.004086185247,
493.3827515,0.04833069816,493.3827515,0.003934627399,493.3827515,0.004100556951,
493.1924438,0.04833373427,493.1924438,0.004000118934,493.1924438,0.004188943189,
493.0021667,0.04902080819,493.0021667,0.003982693888,493.0021667,0.004135992844,
492.8119202,0.04909604415,492.8119202,0.003992777783,492.8119202,0.004175430629,
492.5835571,0.04911262542,492.5835571,0.003946774174,492.5835571,0.004198195413,
492.3933105,0.04925070331,492.3933105,0.003815868869,492.3933105,0.004023789428,
492.2029114,0.04926386476,492.2029114,0.003865959356,492.2029114,0.004035703372,
492.0126648,0.04934674129,492.0126648,0.003799678292,492.0126648,0.00400615437,
491.7842407,0.04944344237,491.7842407,0.003752415534,491.7842407,0.004013312515,
491.5939331,0.04950720444,491.5939331,0.00382451294,491.5939331,0.004065803718,
491.403595,0.04958487675,491.403595,0.003848617664,491.403595,0.004058043007,
491.2132568,0.04961885512,491.2132568,0.003886801424,491.2132568,0.004066587426,
490.9848328,0.04891275987,490.9848328,0.003953252453,490.9848328,0.004171327222,
490.7944641,0.04894723743,490.7944641,0.003936220892,490.7944641,0.004173601046,
490.6041565,0.04888767004,490.6041565,0.004041216336,490.6041565,0.004241977818,
490.4137573,0.04884094372,490.4137573,0.00407364266,490.4137573,0.00432066666,
490.1853027,0.0488480702,490.1853027,0.004142160527,490.1853027,0.004314130638,
489.9949036,0.04945794493,489.9949036,0.00423047645,489.9949036,0.004396493081,
489.8045044,0.04945426062,489.8045044,0.004295698833,489.8045044,0.004402402788,
489.6140747,0.04947781563,489.6140747,0.004322496708,489.6140747,0.004441550933,
489.3856201,0.04951181635,489.3856201,0.004272118211,489.3856201,0.004491504282,
489.1951599,0.04944419488,489.1951599,0.004374632612,489.1951599,0.004538219422,
489.0047607,0.04949939996,489.0047607,0.004339700565,489.0047607,0.004483448341,
488.81427,0.0494706817,488.81427,0.004354185425,488.81427,0.00451936014,
488.5858154,0.04955623671,488.5858154,0.004331647418,488.5858154,0.00446969131,
488.3953247,0.04959895089,488.3953247,0.004290993325,488.3953247,0.00445227325,
488.204895,0.04964952916,488.204895,0.004307515919,488.204895,0.004479446914,
488.0144348,0.04970986769,488.0144348,0.004293372389,488.0144348,0.004438831005,
487.7858582,0.04971332476,487.7858582,0.004364931956,487.7858582,0.004507432692,
487.5953674,0.04974798113,487.5953674,0.004342027474,487.5953674,0.004463283811,
487.4048767,0.04979703948,487.4048767,0.004329686519,487.4048767,0.004457163624,
487.2144165,0.04978377372,487.2144165,0.004400258418,487.2144165,0.004541672301,
486.9857788,0.04981303588,486.9857788,0.004405671731,486.9857788,0.004518653732,
486.7952881,0.04976266995,486.7952881,0.004508662038,486.7952881,0.004666228779,
486.6047974,0.04971462861,486.6047974,0.004616883583,486.6047974,0.004725000821,
486.4142456,0.0496481359,486.4142456,0.004711157642,486.4142456,0.004773678258,
486.1856079,0.04958696663,486.1856079,0.004748841748,486.1856079,0.004844296258,
485.9950562,0.04954283312,485.9950562,0.00478378078,485.9950562,0.004941499792,
485.8044739,0.049448926,485.8044739,0.004904505797,485.8044739,0.005023797974,
485.6139832,0.04944666103,485.6139832,0.004908720963,485.6139832,0.005024479236,
485.3852234,0.04937728122,485.3852234,0.005015470553,485.3852234,0.005112110171,
485.1946716,0.04937760159,485.1946716,0.005024950486,485.1946716,0.005101921503,
485.0040588,0.04935532808,485.0040588,0.004996014293,485.0040588,0.005121461116,
484.8135071,0.04939018935,484.8135071,0.004922832362,484.8135071,0.00503128767,
484.5847473,0.04947187006,484.5847473,0.004871520214,484.5847473,0.004963048268,
484.3942261,0.04957869649,484.3942261,0.004839872476,484.3942261,0.004880211782,
484.2036438,0.04969056696,484.2036438,0.00478378078,484.2036438,0.00486924313,
484.0129395,0.04974220321,484.0129395,0.004802729934,484.0129395,0.0048984061,
483.7842102,0.04979265854,483.7842102,0.004826705903,483.7842102,0.004926628433,
483.5935669,0.04981405288,483.5935669,0.004870289937,483.5935669,0.005004812963,
483.4029846,0.04981361702,483.4029846,0.004933199845,483.4029846,0.004997218959,
483.2122803,0.04983074591,483.2122803,0.004973443225,483.2122803,0.005057371221,
482.983551,0.04909902811,482.983551,0.005026312079,482.983551,0.005083011463,
482.7928467,0.04904990271,482.7928467,0.005082461517,482.7928467,0.005137255881,
482.6021729,0.04901237413,482.6021729,0.005163398106,482.6021729,0.005189463496,
482.4114685,0.04903729632,482.4114685,0.005078506656,482.4114685,0.005180425476,
482.1826477,0.04910972342,482.1826477,0.005079240073,482.1826477,0.005096971057,
481.9919434,0.04901825637,481.9919434,0.005195855629,481.9919434,0.005216761492,
481.8012695,0.04906230792,481.8012695,0.005136967637,481.8012695,0.00525383465,
481.6105347,0.04907758161,481.6105347,0.005193628836,481.6105347,0.00525401812,
481.3816833,0.04910897091,481.3816833,0.005168349016,481.3816833,0.005248934962,
481.190918,0.04911042005,481.190918,0.005226193462,481.190918,0.005271206144,
481.0002136,0.04911256582,481.0002136,0.005243773572,481.0002136,0.00526730204,
480.8095398,0.04908303171,480.8095398,0.005248882808,480.8095398,0.005323534831,
480.5805969,0.04901564866,480.5805969,0.005343058147,480.5805969,0.005426481366,
480.3898621,0.04901767895,480.3898621,0.005439063068,480.3898621,0.0054905992,
480.1990356,0.04903242737,480.1990356,0.005423545372,480.1990356,0.005517628044,
480.0083008,0.0489458181,480.0083008,0.005601792596,480.0083008,0.005567993503,
479.7793579,0.04890302569,479.7793579,0.005619151983,479.7793579,0.005661136936,
479.588562,0.0488758795,479.588562,0.005658094771,479.588562,0.005738561973,
479.3977966,0.04887335747,479.3977966,0.005787903909,479.3977966,0.005823058076,
479.2069702,0.04883091897,479.2069702,0.005832974799,479.2069702,0.005823058076,
478.9780273,0.04885050282,478.9780273,0.005902846809,478.9780273,0.005901141558,
478.7871704,0.04884494096,478.7871704,0.005854488816,478.7871704,0.005929429084,
478.596344,0.04881533608,478.596344,0.005991416518,478.596344,0.005987033714,
478.4055786,0.04877988622,478.4055786,0.006071709562,478.4055786,0.006096359342,
478.2146912,0.04880198464,478.2146912,0.00613608025,478.2146912,0.006093077827,
477.9856873,0.04876236245,477.9856873,0.006174491718,477.9856873,0.006259571761,
477.7948303,0.04871460795,477.7948303,0.006257890724,477.7948303,0.006365524605,
477.6039429,0.04873311147,477.6039429,0.006271941122,477.6039429,0.006332926918,
477.4131165,0.04871970415,477.4131165,0.006359167863,477.4131165,0.006398098543,
477.184021,0.04865877703,477.184021,0.006438661367,477.184021,0.006531150546,
476.9931946,0.04869560897,476.9931946,0.006500274874,476.9931946,0.006553855725,
476.8022766,0.04872204736,476.8022766,0.00656297477,476.8022766,0.006568467245,
476.6113892,0.04871298373,476.6113892,0.006585733965,476.6113892,0.006653939839,
476.3822632,0.04872656614,476.3822632,0.006651547737,476.3822632,0.006703885272,
476.1913757,0.04872648045,476.1913757,0.006765168626,476.1913757,0.006751023699,
476.0004272,0.04873548821,476.0004272,0.006810604129,476.0004272,0.006800217554,
475.8095093,0.0487626791,475.8095093,0.006811682135,475.8095093,0.006865564268,
475.5803833,0.04879413545,475.5803833,0.006908380426,475.5803833,0.006980872247,
475.3894348,0.04880236089,475.3894348,0.006985449232,475.3894348,0.007006810047,
475.1984863,0.04879439622,475.1984863,0.007041510195,475.1984863,0.007102525327,
475.0075378,0.04886516184,475.0075378,0.007085290737,475.0075378,0.007056375034,
474.7783508,0.04887958616,474.7783508,0.007174339145,474.7783508,0.007178917993,
474.5874329,0.04893984646,474.5874329,0.007215632591,474.5874329,0.007271381095,
474.3963928,0.04897742718,474.3963928,0.007186392322,474.3963928,0.00724163698,
474.2054443,0.04895821586,474.2054443,0.007333902642,474.2054443,0.007360678166,
473.9762878,0.04905590415,473.9762878,0.007321423851,473.9762878,0.00733564049,
473.7852173,0.049107261,473.7852173,0.007367075887,473.7852173,0.007400224917,
473.5942383,0.04909401387,473.5942383,0.007451626007,473.5942383,0.007463081274,
473.4031677,0.04919155687,473.4031677,0.007488600444,473.4031677,0.007522469852,
473.2121887,0.0492820479,473.2121887,0.00758386869,473.2121887,0.007527289912,
472.9829102,0.04928712174,472.9829102,0.007640665863,472.9829102,0.007613030262,
472.7919006,0.04936220124,472.7919006,0.007636371534,472.7919006,0.007626334205,
472.6007996,0.04943256453,472.6007996,0.007689038757,472.6007996,0.00763075985,
472.409729,0.049482923,472.409729,0.007646119222,472.409729,0.007660504431,
472.1805115,0.04955824092,472.1805115,0.007754572202,472.1805115,0.007702661213,
471.9894409,0.04961737618,471.9894409,0.007862656377,471.9894409,0.007856593467,
471.7983704,0.04964613542,471.7983704,0.007934015244,471.7983704,0.007880580612,
471.6072998,0.04973802343,471.6072998,0.007865212858,471.6072998,0.007959773764,
471.3778992,0.04986274242,471.3778992,0.007903646678,471.3778992,0.00795990508,
471.1868896,0.04985853285,471.1868896,0.007993863896,471.1868896,0.00790319778,
470.9957581,0.04987101629,470.9957581,0.00806002412,470.9957581,0.008114984259,
470.8045959,0.04998682812,470.8045959,0.008119546808,470.8045959,0.008134607226,
470.6135254,0.0500696972,470.6135254,0.008121578023,470.6135254,0.008179711178,
470.3841553,0.05018806085,470.3841553,0.008174884133,470.3841553,0.008136480115,
470.1930237,0.05027000979,470.1930237,0.008184090257,470.1930237,0.008185250685,
470.0018616,0.05035185814,470.0018616,0.008215560578,470.0018616,0.008251307532,
469.81073,0.05043104663,469.81073,0.008229120634,469.81073,0.008232022636,
469.5812988,0.05048378929,469.5812988,0.008374609984,469.5812988,0.008424331434,
469.3901367,0.0505207479,469.3901367,0.008478362113,469.3901367,0.008481713943,
469.1990051,0.05062483251,469.1990051,0.008474666625,469.1990051,0.008527619764,
469.007782,0.05075196177,469.007782,0.008459541947,469.007782,0.0084915068,
468.7783508,0.05081850663,468.7783508,0.008563709445,468.7783508,0.008567326702,
468.5871582,0.05082240328,468.5871582,0.008648968302,468.5871582,0.008703870699,
468.3959656,0.0509753786,468.3959656,0.008659636602,468.3959656,0.008717789315,
468.2047424,0.05108615756,468.2047424,0.008687813766,468.2047424,0.008728353307,
468.0135193,0.05113332719,468.0135193,0.008746366948,468.0135193,0.008770376444,
467.7840576,0.05122075602,467.7840576,0.00881470181,467.7840576,0.008800859563,
467.5928345,0.05133112893,467.5928345,0.008789500222,467.5928345,0.008789236657,
467.4015808,0.05140691251,467.4015808,0.008769848384,467.4015808,0.008818082511,
467.2103577,0.05153307319,467.2103577,0.00884074904,467.2103577,0.008901858702,
466.980835,0.05162040889,466.980835,0.009000953287,466.980835,0.009090685286,
466.7895508,0.05168822408,466.7895508,0.00898818858,466.7895508,0.009080402553,
466.5982971,0.05182525516,466.5982971,0.009012528695,466.5982971,0.00905093085,
466.4070129,0.05185436457,466.4070129,0.009067398496,466.4070129,0.009151143022,
466.1774597,0.0519314073,466.1774597,0.009164917283,466.1774597,0.009211926721,
465.9861755,0.0520500727,465.9861755,0.009180383757,465.9861755,0.009214200079,
465.7949219,0.05212411657,465.7949219,0.009255080484,465.7949219,0.009246988222,
465.6035461,0.05225585774,465.6035461,0.009235909209,465.6035461,0.009261268191,
465.4122925,0.05227717012,465.4122925,0.009359993972,465.4122925,0.009420991875,
465.1826782,0.05243769661,465.1826782,0.009384726174,465.1826782,0.009360708296,
464.9913635,0.05253242701,464.9913635,0.009425171651,464.9913635,0.009415384382,
464.7999878,0.052615989,464.7999878,0.009477765299,464.7999878,0.009471124969,
464.6086731,0.0527105853,464.6086731,0.009477579966,464.6086731,0.00955719687,
464.3790588,0.05276164785,464.3790588,0.009588131681,464.3790588,0.009637383744,
464.1876831,0.05285422876,464.1876831,0.009573233314,464.1876831,0.009568337351,
463.9962769,0.05292559788,463.9962769,0.009577070363,463.9962769,0.009647997096,
463.8049622,0.05300996453,463.8049622,0.009642835706,463.8049622,0.009728413075,
463.6135559,0.0531088002,463.6135559,0.009735719301,463.6135559,0.009717188776,
463.3839111,0.05318422243,463.3839111,0.009784590453,463.3839111,0.009862356819,
463.1925049,0.05326299369,463.1925049,0.009844959714,463.1925049,0.009829760529,
463.0010986,0.05333010107,463.0010986,0.00980084762,463.0010986,0.009912514128,
462.8097229,0.05336244404,462.8097229,0.009854969569,462.8097229,0.01000365429,
462.5799561,0.05341340601,462.5799561,0.009965087287,462.5799561,0.01002492476,
462.3886108,0.0535242483,462.3886108,0.009984502569,462.3886108,0.009999918751,
462.1970825,0.05365492031,462.1970825,0.01000081934,462.1970825,0.0100382762,
462.0056763,0.05434351787,462.0056763,0.01012586523,462.0056763,0.01016282942,
461.7759094,0.05441686511,461.7759094,0.01015326381,461.7759094,0.01016855333,
461.5845032,0.05449412763,461.5845032,0.01014555339,461.5845032,0.01024389733,
461.3930359,0.05457615852,461.3930359,0.01016269717,461.3930359,0.01025852747,
461.2015686,0.05464082956,461.2015686,0.01019802224,461.2015686,0.01029438991,
461.0101318,0.05474555492,461.0101318,0.01021530107,461.0101318,0.01028492767,
460.780304,0.05486355349,460.780304,0.0102479523,460.780304,0.01027808897,
460.5888367,0.05493343621,460.5888367,0.01020435523,460.5888367,0.01026788447,
460.3973389,0.05505754054,460.3973389,0.01023014262,460.3973389,0.01031795517,
460.2058105,0.05518867448,460.2058105,0.01021506265,460.2058105,0.01027469616,
459.9760132,0.05460087582,459.9760132,0.01019831374,459.9760132,0.01023318991,
459.7844849,0.05472523719,459.7844849,0.01020297781,459.7844849,0.01032718085,
459.592926,0.0547737442,459.592926,0.01034059376,459.592926,0.0103590982,
459.4014893,0.05484980717,459.4014893,0.0103436159,459.4014893,0.0103807319,
459.2098694,0.05490379408,459.2098694,0.01037550904,459.2098694,0.01043071039,
458.980072,0.05495749414,458.980072,0.01040857006,458.980072,0.01046443824,
458.7884521,0.0550146699,458.7884521,0.01046719681,458.7884521,0.01049336977,
458.5969543,0.05507728457,458.5969543,0.01050901692,458.5969543,0.01050954685,
458.4053955,0.0551417917,458.4053955,0.01053665113,458.4053955,0.01055304147,
458.1754761,0.05514640734,458.1754761,0.01065150555,458.1754761,0.01066238247,
457.9839172,0.05522285774,457.9839172,0.01060590521,457.9839172,0.01071035024,
457.7922668,0.05527512729,457.7922668,0.01068405714,457.7922668,0.010674241,
457.600708,0.05532319844,457.600708,0.0106811123,457.600708,0.01076726522,
457.4090881,0.05543709174,457.4090881,0.0106394086,457.4090881,0.01067975909,
457.1791687,0.05546265095,457.1791687,0.01075930428,457.1791687,0.01080311649,
456.9875183,0.05554583669,456.9875183,0.01073436253,456.9875183,0.01082134899,
456.795929,0.05559820309,456.795929,0.01074203104,456.795929,0.01075808425,
456.604248,0.05566834658,456.604248,0.01076580584,456.604248,0.01079271361,
456.4126587,0.05574607104,456.4126587,0.01073383167,456.4126587,0.01077116653,
456.1826477,0.0557352975,456.1826477,0.01086378656,456.1826477,0.01091602352,
455.9910278,0.05587087572,455.9910278,0.01084942836,455.9910278,0.01090827305,
455.7993469,0.05582583696,455.7993469,0.01101642847,455.7993469,0.01094702911,
455.607666,0.0559498705,455.607666,0.01090933476,455.607666,0.01090203505,
455.3776245,0.05600690842,455.3776245,0.01094753388,455.3776245,0.01099940948,
455.1859741,0.05607791618,455.1859741,0.01098637376,455.1859741,0.01097963005,
454.9943237,0.05610654876,454.9943237,0.01094543654,454.9943237,0.01097907219,
454.8025513,0.05619477481,454.8025513,0.01094254293,454.8025513,0.01102383621,
454.6109009,0.05623322725,454.6109009,0.01103432383,454.6109009,0.01109574363,
454.3807983,0.05630432814,454.3807983,0.01101321541,454.3807983,0.01105123758,
454.1890869,0.05629734322,454.1890869,0.01109300833,454.1890869,0.01109168027,
453.997406,0.05633527413,453.997406,0.01105997432,453.997406,0.01106161997,
453.8056335,0.05643849447,453.8056335,0.0110581154,453.8056335,0.01107718144,
453.575531,0.05649155751,453.575531,0.0110676745,453.575531,0.01108084526,
453.3837891,0.05656839535,453.3837891,0.01111568697,453.3837891,0.01103538554,
453.1920776,0.05660737678,453.1920776,0.01105344202,453.1920776,0.01107694209,
453.0003357,0.05663091317,453.0003357,0.01108411234,453.0003357,0.01111271232,
452.8085327,0.0567234382,452.8085327,0.01107927877,452.8085327,0.01107832324,
452.5784302,0.05674190074,452.5784302,0.01113425102,452.5784302,0.01115977392,
452.3866272,0.05684616417,452.3866272,0.01116059721,452.3866272,0.01112237945,
452.1948242,0.056859795,452.1948242,0.01119026542,452.1948242,0.01117063686,
452.0030518,0.05688939244,452.0030518,0.01119502075,452.0030518,0.01118689217,
451.8111572,0.05695762113,451.8111572,0.0111764539,451.8111572,0.01115130167,
451.5810547,0.05699729174,451.5810547,0.01119023934,451.5810547,0.01113911066,
451.3892212,0.05700779706,451.3892212,0.01127489936,451.3892212,0.01122748014,
451.1974182,0.05708399042,451.1974182,0.01124442834,451.1974182,0.01120917778,
451.0056152,0.05713639408,451.0056152,0.01120947022,451.0056152,0.01120646857,
450.7753601,0.05716904998,450.7753601,0.01126164291,450.7753601,0.01124267466,
450.5835266,0.05719624832,450.5835266,0.01129060052,450.5835266,0.01127872523,
450.3916016,0.05725708231,450.3916016,0.01125181373,450.3916016,0.01125247777,
450.1997986,0.05731898919,450.1997986,0.01127314568,450.1997986,0.01119608246,
450.0079041,0.05731745437,450.0079041,0.01130399108,450.0079041,0.01123648509,
449.77771,0.05741984397,449.77771,0.01130388491,449.77771,0.01123600733,
449.5858154,0.05743125081,449.5858154,0.01134280954,449.5858154,0.01128669549,
449.3939209,0.0574952811,449.3939209,0.01129641943,449.3939209,0.01126876287,
449.2019653,0.05748993158,449.2019653,0.01137751248,449.2019653,0.01126743387,
449.0101318,0.05822584033,449.0101318,0.01135574933,449.0101318,0.01131894905,
448.7798157,0.05833253264,448.7798157,0.01135165803,448.7798157,0.01127415523,
448.5879211,0.05837608874,448.5879211,0.01130284835,448.5879211,0.01128839515,
448.3959656,0.05842414871,448.3959656,0.01132484805,448.3959656,0.0112907337,
448.2040405,0.05845858902,448.2040405,0.0113627119,448.2040405,0.01129530277,
448.012085,0.05848764256,448.012085,0.01134528033,448.012085,0.01131629199,
447.7817383,0.05859469622,447.7817383,0.01128757186,447.7817383,0.01125691365,
447.5897827,0.05864470452,447.5897827,0.01128820982,447.5897827,0.01123908907,
447.3978577,0.05865531042,447.3978577,0.01135729067,447.3978577,0.01128321514,
447.2059021,0.05872701854,447.2059021,0.01131050009,447.2059021,0.01127296034,
446.9754944,0.05876782909,446.9754944,0.01135726459,446.9754944,0.01130446885,
446.7835693,0.05880561844,446.7835693,0.01133218128,446.7835693,0.0112575246,
446.5915527,0.05881616846,446.5915527,0.01133733615,446.5915527,0.01128111593,
446.3995056,0.05884794518,446.3995056,0.01133664511,446.3995056,0.01132107526,
446.2075195,0.05894352123,446.2075195,0.01131448522,446.2075195,0.0112935761,
445.9771423,0.05832068995,445.9771423,0.01130428351,445.9771423,0.01125367265,
445.7851257,0.05833291635,445.7851257,0.01129750814,445.7851257,0.01132139377,
445.5930786,0.05837608874,445.5930786,0.01134443004,445.5930786,0.0113112973,
445.401062,0.05841215327,445.401062,0.01132734492,445.401062,0.011294825,
445.2090149,0.05843409896,445.2090149,0.01138410252,445.2090149,0.0113374684,
444.9785461,0.05850076303,444.9785461,0.01137381885,444.9785461,0.011339196,
444.7865295,0.05847620964,444.7865295,0.01141285617,444.7865295,0.01137982402,
444.5944824,0.0584834069,444.5944824,0.0114067439,444.5944824,0.0114286691,
444.4024353,0.05848841369,444.4024353,0.01146720629,444.4024353,0.01145614963,
444.2103271,0.05859392509,444.2103271,0.01144759171,444.2103271,0.01139837317,
443.9798584,0.05863187462,443.9798584,0.01141038444,443.9798584,0.01140591968,
443.7877502,0.05870467797,443.7877502,0.01142540015,443.7877502,0.01142935921,
443.5956726,0.05867418647,443.5956726,0.01148195751,443.5956726,0.01144009642,
443.4035339,0.05870808288,443.4035339,0.01147645526,443.4035339,0.01146553177,
443.2114258,0.05875470117,443.2114258,0.01143823657,443.2114258,0.01149171218,
442.980896,0.05875220895,442.980896,0.01155513711,442.980896,0.01153214183,
442.7887573,0.05882266164,442.7887573,0.0115273837,442.7887573,0.01150338072,
442.5966492,0.0588196069,442.5966492,0.01156390924,442.5966492,0.01154883672,
442.4045105,0.0588195771,442.4045105,0.01168555021,442.4045105,0.01157603227,
442.2123718,0.0588391982,442.2123718,0.01167241391,442.2123718,0.01161628403,
441.981842,0.05890195444,441.981842,0.01161572617,441.981842,0.01160870679,
441.7896423,0.05892932042,441.7896423,0.01163548045,441.7896423,0.0115989754,
441.5975037,0.05901201442,441.5975037,0.01160788257,441.5975037,0.0115542328,
441.405365,0.0590695776,441.405365,0.0116682658,441.405365,0.01160522364,
441.1747131,0.05910626426,441.1747131,0.01174331177,441.1747131,0.01170086768,
440.9825439,0.05920492485,440.9825439,0.01172839198,440.9825439,0.01166092698,
440.7903442,0.05924016982,440.7903442,0.0117326472,440.7903442,0.01169257052,
440.5981445,0.05923595652,440.5981445,0.01184486505,440.5981445,0.01182276011,
440.4059753,0.05934942514,440.4059753,0.01177533437,440.4059753,0.01173187606,
440.175293,0.05942985788,440.175293,0.01182520762,440.175293,0.01179116033,
439.9830322,0.05940738693,439.9830322,0.01193920523,439.9830322,0.01193415001,
439.790863,0.05940157175,439.790863,0.01194942277,439.790863,0.01195559558,
439.5986328,0.05940940604,439.5986328,0.01199875679,439.5986328,0.01197651029,
439.4063721,0.05940270051,439.4063721,0.01205413789,439.4063721,0.01209179964,
439.1756897,0.05943122134,439.1756897,0.01214916259,439.1756897,0.01211048476,
438.9833984,0.05941649899,438.9833984,0.01225086395,438.9833984,0.01220490877,
438.7911682,0.05942893773,438.7911682,0.01228555944,438.7911682,0.01229692996,
438.598938,0.05948207155,438.598938,0.01231522486,438.598938,0.01230710279,
438.4066467,0.05946690217,438.4066467,0.01236939523,438.4066467,0.01239222102,
438.1759033,0.05944517255,438.1759033,0.01250900514,438.1759033,0.01253905892,
437.9836426,0.05948225036,437.9836426,0.01260428876,437.9836426,0.01264277101,
437.7913513,0.05949216336,437.7913513,0.01270516403,437.7913513,0.01272153016,
437.5990601,0.05947079137,437.5990601,0.01284672227,437.5990601,0.0128837591,
437.4067078,0.05950929224,437.4067078,0.01292594615,437.4067078,0.01293698698,
437.1759949,0.05954524502,437.1759949,0.01302897651,437.1759949,0.01306333486,
436.9836426,0.0595118776,436.9836426,0.01314990781,436.9836426,0.01315524429,
436.7913208,0.05952015892,436.7913208,0.01326462813,436.7913208,0.01329331938,
436.598999,0.05958138034,436.598999,0.01334109809,436.598999,0.01342011802,
436.4066162,0.05961389467,436.4066162,0.01347055472,436.4066162,0.01355144102,
436.1758118,0.05962449685,436.1758118,0.01368766464,436.1758118,0.01373612788,
435.983429,0.05962440744,435.983429,0.01384581905,435.983429,0.01389782783,
435.7910461,0.05969140679,435.7910461,0.01393316314,435.7910461,0.0140316207,
435.5987244,0.05967058614,435.5987244,0.01417866629,435.5987244,0.01427552104,
435.4063416,0.05970319733,435.4063416,0.01434727293,435.4063416,0.01439803094,
435.1755066,0.05973242223,435.1755066,0.0145945102,435.1755066,0.01460473705,
434.9831238,0.0597062856,434.9831238,0.01479059551,434.9831238,0.0148632098,
434.7906799,0.05975170061,434.7906799,0.01491665374,434.7906799,0.0149795888,
434.5983582,0.05973851308,434.5983582,0.01515563764,434.5983582,0.01525279041,
434.4059143,0.05974902585,434.4059143,0.01548715774,434.4059143,0.0154697476,
434.1750488,0.05978669226,434.1750488,0.01570337266,434.1750488,0.01573364809,
433.982605,0.05985802412,433.982605,0.01595987007,433.982605,0.01601589285,
433.7901306,0.0598153919,433.7901306,0.01624739356,433.7901306,0.01637024619,
433.5976868,0.05985365808,433.5976868,0.01645041071,433.5976868,0.01653448865,
433.405304,0.0598907955,433.405304,0.01663913205,433.405304,0.01673540659,
433.1743469,0.05993789434,433.1743469,0.01695353724,433.1743469,0.01707190461,
432.9819031,0.05987341329,432.9819031,0.01735194959,432.9819031,0.01744266972,
432.7894287,0.05990990251,432.7894287,0.01778238639,432.7894287,0.01787281781,
432.5969543,0.05995453894,432.5969543,0.01817745529,432.5969543,0.01828403585,
432.40448,0.05998755619,432.40448,0.01846321113,432.40448,0.01854400523,
432.2119751,0.0599540323,432.2119751,0.01884924993,432.2119751,0.01894693449,
431.9810181,0.06003540754,431.9810181,0.01925863326,431.9810181,0.01927500404,
431.7884827,0.06008603051,431.7884827,0.01956789941,431.7884827,0.01964741014,
431.5959473,0.06003906205,431.5959473,0.02017641068,431.5959473,0.02022243105,
431.4034729,0.06003614888,431.4034729,0.02071737871,431.4034729,0.02076693252,
431.2109375,0.06011418253,431.2109375,0.021134587,431.2109375,0.02125007659,
430.9799805,0.06013903767,430.9799805,0.02172350138,430.9799805,0.02187295817,
430.787384,0.06007348374,430.787384,0.02239276655,430.787384,0.02244567312,
430.5949097,0.06014991924,430.5949097,0.02288391814,430.5949097,0.02297031693,
430.4023438,0.06013282388,430.4023438,0.02353617549,430.4023438,0.02360253036,
430.2098083,0.06017590314,430.2098083,0.02413311787,430.2098083,0.02427453548,
429.9787292,0.06018794701,429.9787292,0.02483321726,429.9787292,0.02493431419,
429.7861633,0.06018690392,429.7861633,0.02544728853,429.7861633,0.02549982816,
429.5935669,0.06017293036,429.5935669,0.02611355297,429.5935669,0.02618915774,
429.401001,0.06018217653,429.401001,0.02682745457,429.401001,0.02696267515,
429.2084351,0.06017417833,429.2084351,0.02781975269,429.2084351,0.02778404206,
428.9772949,0.06025351211,428.9772949,0.02869929373,428.9772949,0.02880948223,
428.784668,0.06027825549,428.784668,0.02940973453,428.784668,0.02944416739,
428.5921021,0.06030294299,428.5921021,0.03004815429,428.5921021,0.03012450226,
428.3994751,0.06026249379,428.3994751,0.03081288002,428.3994751,0.0308989808,
428.2068481,0.06032872945,428.2068481,0.03154655173,428.2068481,0.03160985932,
427.9757385,0.06030561775,427.9757385,0.03284624964,427.9757385,0.03291840106,
427.7831116,0.06029297784,427.7831116,0.03410451487,427.7831116,0.03417919949,
427.5904236,0.06035029516,427.5904236,0.03511949256,427.5904236,0.03516723588,
427.3977966,0.06036846712,427.3977966,0.03592692316,427.3977966,0.0360044241,
427.2051697,0.06033601612,427.2051697,0.03685461357,427.2051697,0.03698098287,
426.973999,0.06108660251,426.973999,0.03798409551,426.973999,0.03812379763,
426.7813416,0.06107670814,426.7813416,0.03919621184,426.7813416,0.039332252,
426.588623,0.06114410982,426.588623,0.04074709117,426.588623,0.04081818089,
426.3959961,0.06117063388,426.3959961,0.04212665558,426.3959961,0.04219266027,
426.2033081,0.06114941463,426.2033081,0.04336622357,426.2033081,0.04337892309,
426.0105896,0.06117003784,426.0105896,0.0446665138,426.0105896,0.04475319386,
425.7793579,0.06118964776,425.7793579,0.04645056278,425.7793579,0.04657327384,
425.5866394,0.06118744239,425.5866394,0.04776666686,425.5866394,0.04790706187,
425.3939209,0.06124606729,425.3939209,0.04944042489,425.3939209,0.04959529266,
425.2012024,0.06125834584,425.2012024,0.05092816427,425.2012024,0.05101691931,
425.0085449,0.06128377467,425.0085449,0.05215642601,425.0085449,0.05230788514,
424.7772217,0.06133561581,424.7772217,0.05381853878,424.7772217,0.05388974398,
424.5844421,0.06137997657,424.5844421,0.05556283891,424.5844421,0.05568927154,
424.3917236,0.06135731936,424.3917236,0.05715378374,424.3917236,0.0573245734,
424.1990051,0.06143737584,424.1990051,0.05942160636,424.1990051,0.05953960493,
424.0062256,0.06143609434,424.0062256,0.06144820154,424.0062256,0.06155882031,
423.7749023,0.06147190928,423.7749023,0.06325510144,423.7749023,0.06352654845,
423.5821533,0.06145267561,423.5821533,0.06486178935,423.5821533,0.06511697173,
423.3893738,0.06144915521,423.3893738,0.06682098657,423.3893738,0.06679610908,
423.1965942,0.06144354865,423.1965942,0.06878343225,423.1965942,0.06890366971,
423.0037842,0.06142151356,423.0037842,0.07153055817,423.0037842,0.07162500173,
422.8110046,0.06145240739,422.8110046,0.07440426946,422.8110046,0.07457803935,
422.5796509,0.06145526841,422.5796509,0.07694028318,422.5796509,0.07713835686,
422.3868103,0.06146579608,422.3868103,0.07894080132,422.3868103,0.07898532599,
422.1940002,0.06144721806,422.1940002,0.08103246242,422.1940002,0.08117149025,
422.0011902,0.06153734401,422.0011902,0.08303441107,422.0011902,0.08314154297,
421.8083191,0.0615552105,421.8083191,0.08556760103,421.8083191,0.08573401719,
421.5769653,0.0616087243,421.5769653,0.08930760622,421.5769653,0.08943646401,
421.3840942,0.06164291129,421.3840942,0.09202571213,421.3840942,0.09210141748,
421.1912231,0.06168468297,421.1912231,0.09456309676,421.1912231,0.09460265189,
420.9983521,0.06097944081,420.9983521,0.09718672186,420.9983521,0.09738689661,
420.805542,0.06104941666,420.805542,0.1004015282,420.805542,0.1003246158,
420.5740662,0.06102087721,420.5740662,0.1042019352,420.5740662,0.1043238938,
420.3811951,0.06101283431,420.3811951,0.1076590046,420.3811951,0.1080152467,
420.188324,0.06097244099,420.188324,0.1108312681,420.188324,0.1107261032,
419.9954224,0.06101795658,419.9954224,0.1133721098,419.9954224,0.1134169102,
419.8024902,0.06106863543,419.8024902,0.1163210422,419.8024902,0.1164332256,
419.6096191,0.06105478108,419.6096191,0.1203823239,419.6096191,0.1205320433,
419.3781738,0.06111884117,419.3781738,0.1244701073,419.3781738,0.1246060058,
419.1852417,0.06110072508,419.1852417,0.1289419532,419.1852417,0.1287936419,
418.9922791,0.06112927198,418.9922791,0.1320880502,418.9922791,0.1322688907,
418.7993774,0.06116279587,418.7993774,0.1348654926,418.7993774,0.135223031,
418.6064453,0.06114479527,418.6064453,0.1379332393,418.6064453,0.1380174309,
418.3749084,0.06120189652,418.3749084,0.1424291134,418.3749084,0.1423507929,
418.1819458,0.06125602126,418.1819458,0.145612523,418.1819458,0.1458328366,
417.9890137,0.06127897277,417.9890137,0.1516384333,417.9890137,0.1516275704,
417.796051,0.06127074733,417.796051,0.1562903374,417.796051,0.1563668847,
417.6030884,0.06125509739,417.6030884,0.1600627452,417.6030884,0.1602261513,
417.4100647,0.06135087833,417.4100647,0.1634510458,417.4100647,0.1635387838,
417.1785278,0.06128961593,417.1785278,0.1685031056,417.1785278,0.1687886119,
416.9855652,0.06132518128,416.9855652,0.1719201505,416.9855652,0.1722104102,
416.7925415,0.06132831052,416.7925415,0.1778308004,416.7925415,0.1779876351,
416.5995789,0.06135571003,416.5995789,0.1837115735,416.5995789,0.1836105436,
416.4065552,0.06136691943,416.4065552,0.1879977286,416.4065552,0.188257888,
416.1749573,0.06133847684,416.1749573,0.1935264468,416.1749573,0.1935897171,
415.9819031,0.06133972853,415.9819031,0.1986258924,415.9819031,0.1988983899,
415.7888794,0.06134911999,415.7888794,0.2039056122,415.7888794,0.203853786,
415.5958557,0.06133466214,415.5958557,0.2095784396,415.5958557,0.2095870674,
415.4028015,0.061363969,415.4028015,0.2153117508,415.4028015,0.2151747942,
415.2097778,0.06139083207,415.2097778,0.219665274,415.2097778,0.2198050618,
414.9781494,0.06138191745,414.9781494,0.2250781208,414.9781494,0.2252087891,
414.7850647,0.06138349697,414.7850647,0.2307056636,414.7850647,0.2308626771,
414.5919495,0.06135863066,414.5919495,0.2360936105,414.5919495,0.2364505976,
414.3989563,0.06139145792,414.3989563,0.2425594181,414.3989563,0.2426254898,
414.2058411,0.06138841435,414.2058411,0.2490446717,414.2058411,0.2489257306,
413.9741211,0.06133886427,413.9741211,0.255119592,413.9741211,0.2551647723,
413.7810669,0.0613332577,413.7810669,0.2598396838,413.7810669,0.2596531212,
413.5879517,0.06134932861,413.5879517,0.2644524276,413.5879517,0.264492631,
413.3948669,0.06137416512,413.3948669,0.2697768509,413.3948669,0.2696855664,
413.2016907,0.06133496016,413.2016907,0.2763257623,413.2016907,0.276298672,
413.0086365,0.06127110496,413.0086365,0.284714818,413.0086365,0.2848348022,
412.776825,0.06127775088,412.776825,0.2921133637,412.776825,0.2924663424,
412.5837708,0.0613255091,412.5837708,0.2973518372,412.5837708,0.2975532413,
412.390625,0.06134828553,412.390625,0.3026302457,412.390625,0.3029067516,
412.1974487,0.06131531298,412.1974487,0.3087188005,412.1974487,0.3087625504,
412.0043335,0.06130738184,412.0043335,0.3137837648,412.0043335,0.3139388859,
411.7725525,0.06124967337,411.7725525,0.3238561451,411.7725525,0.323923707,
411.5793762,0.06126729026,411.5793762,0.330435127,411.5793762,0.3307507336,
411.3862305,0.06132222712,411.3862305,0.3362558484,411.3862305,0.336172998,
411.1930237,0.06133844703,411.1930237,0.3417644501,411.1930237,0.3418622315,
410.9998474,0.06136939302,410.9998474,0.3479300439,410.9998474,0.3481300473,
410.8067017,0.06139181554,410.8067017,0.3529453874,410.8067017,0.3532076478,
410.5747986,0.06140994281,410.5747986,0.3613036275,410.5747986,0.3615380824,
410.3815918,0.06134599075,410.3815918,0.3671374619,410.3815918,0.3672256768,
410.188446,0.06133466214,410.188446,0.3718857169,410.188446,0.3723922372,
409.9952393,0.06136453524,409.9952393,0.3769165576,409.9952393,0.3771055937,
409.8019714,0.0613418147,409.8019714,0.3828954697,409.8019714,0.3832723796,
409.6087646,0.06127217785,409.6087646,0.3893589675,409.6087646,0.3896418214,
409.3768616,0.06131742895,409.3768616,0.3971675336,409.3768616,0.3971776962,
409.1836243,0.06121688709,409.1836243,0.4030990005,409.1836243,0.4032434225,
408.9903564,0.06121140346,408.9903564,0.40733549,408.9903564,0.407478869,
408.7971497,0.06128317863,408.7971497,0.4113029838,408.7971497,0.41167593,
408.6038818,0.06117492542,408.6038818,0.4159420431,408.6038818,0.4160082638,
408.4106445,0.06129942462,408.4106445,0.420399338,408.4106445,0.4204676151,
408.1786804,0.06121524796,408.1786804,0.4274490178,408.1786804,0.4277374446,
407.9854736,0.06119235978,407.9854736,0.4335771501,407.9854736,0.4336870313,
407.7921753,0.06116106734,407.7921753,0.4378583133,407.7921753,0.4379036129,
407.598877,0.06114562973,407.598877,0.4414403141,407.598877,0.4416345656,
407.4055786,0.06119671091,407.4055786,0.4452998638,407.4055786,0.4453487992,
407.1736145,0.06114574894,407.1736145,0.4496559799,407.1736145,0.4497044086,
406.9802856,0.06116076931,406.9802856,0.4537310898,406.9802856,0.4540919065,
406.7869568,0.0611875318,406.7869568,0.4583571851,406.7869568,0.4586335719,
406.593689,0.06114497408,406.593689,0.4624237418,406.593689,0.462534517,
406.4003296,0.0611592792,406.4003296,0.4652424753,406.4003296,0.4655354023,
406.2070007,0.06117188558,406.2070007,0.4683223367,406.2070007,0.4685668349,
405.9750061,0.06115567312,405.9750061,0.4718270898,405.9750061,0.4721134007,
405.7816467,0.06118633971,405.7816467,0.4744080901,405.7816467,0.4746423364,
405.5882874,0.06115004048,405.5882874,0.4772526622,405.5882874,0.4774104953,
405.3948975,0.06124132872,405.3948975,0.4789234996,405.3948975,0.4792197645,
405.2015686,0.06120082363,405.2015686,0.4805585146,405.2015686,0.4808210433,
405.0082092,0.06121554598,405.0082092,0.4819356799,405.0082092,0.4822649658,
404.7761536,0.06121202931,404.7761536,0.4838174284,404.7761536,0.4840742648,
404.5827637,0.06117048487,404.5827637,0.4850620925,404.5827637,0.48519063,
404.3893738,0.061099682,404.3893738,0.486327827,404.3893738,0.4865563512,
404.1960144,0.061044503,404.1960144,0.4870067239,404.1960144,0.4870847464,
404.002594,0.06099186093,404.002594,0.4873201847,404.002594,0.4875910878,
403.8091736,0.06099576503,403.8091736,0.4875713587,403.8091736,0.4878114164,
403.5770874,0.06090179086,403.5770874,0.4877333641,403.5770874,0.4880868793,
403.383667,0.06091275066,403.383667,0.4875383079,403.383667,0.4879664481,
403.1902161,0.06083254889,403.1902161,0.4870998859,403.1902161,0.4873500466,
402.9967651,0.06088910252,402.9967651,0.4861570597,402.9967651,0.4864363968,
402.8033447,0.06081682816,402.8033447,0.485334754,402.8033447,0.4856007397,
402.6098938,0.06074628979,402.6098938,0.4844456017,402.6098938,0.484695822,
402.3777466,0.06078011543,402.3777466,0.4829327166,402.3777466,0.4831034243,
402.1842957,0.06078726053,402.1842957,0.4814217389,402.1842957,0.4816580117,
401.9908142,0.06071669981,401.9908142,0.4793286324,401.9908142,0.4796272814,
401.7973633,0.06060721725,401.7973633,0.4769404829,401.7973633,0.4771778584,
401.6038818,0.060530141,401.6038818,0.4745413661,401.6038818,0.4747285545,
401.3717041,0.06062400341,401.3717041,0.4715263546,401.3717041,0.4718621969,
401.1781921,0.06055087969,401.1781921,0.468950361,401.1781921,0.4692651331,
400.9847107,0.06049243733,400.9847107,0.4660453498,400.9847107,0.4661935866,
400.7912292,0.06051600352,400.7912292,0.462582916,400.7912292,0.4627610743,
400.5977173,0.06043620408,400.5977173,0.4591081738,400.5977173,0.4592015147,
400.4041748,0.06040006131,400.4041748,0.4557389021,400.4041748,0.4561419487,
400.1719666,0.0604605116,400.1719666,0.4523065686,400.1719666,0.4524647593,
399.9784241,0.06036540493,399.9784241,0.4489605427,399.9784241,0.4490750432,
399.7849121,0.06037884951,399.7849121,0.4449814558,399.7849121,0.4451129138,
399.5913696,0.06037599221,399.5913696,0.4407662749,399.5913696,0.4408763945,
399.3977966,0.06030924618,399.3977966,0.4358257949,399.3977966,0.4360739291,
399.2042847,0.06030312181,399.2042847,0.4319655895,399.2042847,0.4323577583,
398.9719849,0.06031751633,398.9719849,0.4281590581,398.9719849,0.4281977713,
398.7784424,0.06026430801,398.7784424,0.4247865677,398.7784424,0.4252017438,
398.5848694,0.0601881519,398.5848694,0.4205541015,398.5848694,0.4210120738,
398.3912659,0.06020584702,398.3912659,0.4167351127,398.3912659,0.4169626832,
398.1976929,0.06014367566,398.1976929,0.4104878902,398.1976929,0.4107822478,
398.0040894,0.06004735827,398.0040894,0.4055039883,398.0040894,0.4057972729,
397.7717896,0.06005341932,397.7717896,0.4010416865,397.7717896,0.4013531804,
397.578186,0.0599995628,397.578186,0.3973270655,397.578186,0.3975290656,
397.3845825,0.0599725768,397.3845825,0.3929820359,397.3845825,0.3932590485,
397.1909485,0.05990194157,397.1909485,0.3896875083,397.1909485,0.3898229003,
396.9973755,0.05989501625,396.9973755,0.3841201067,396.9973755,0.3842990398,
396.8037109,0.05989124253,396.8037109,0.3786303401,396.8037109,0.3788174391,
396.5713501,0.05972490832,396.5713501,0.3737539053,396.5713501,0.3737636209,
396.3777161,0.05973681808,396.3777161,0.3694421947,396.3777161,0.3697092533,
396.1840515,0.05972146243,396.1840515,0.3649941385,396.1840515,0.3652967811,
395.9904175,0.05969764292,395.9904175,0.3610322773,395.9904175,0.3611541986,
395.7967529,0.05968594179,395.7967529,0.3567065001,395.7967529,0.3568839431,
395.6030579,0.05971644446,395.6030579,0.3526907861,395.6030579,0.3529178798,
395.4094543,0.05971243232,395.4094543,0.3495915532,395.4094543,0.3498592079,
395.177002,0.05970165133,395.177002,0.3461886644,395.177002,0.3463946879,
394.9833679,0.05972639471,394.9833679,0.343021065,394.9833679,0.3432589471,
394.7896729,0.05972954258,394.7896729,0.3397631347,394.7896729,0.3400292993,
394.5959473,0.0597137697,394.5959473,0.3362446129,394.5959473,0.3364180326,
394.4022522,0.05958126113,394.4022522,0.3329108357,394.4022522,0.3330631852,
394.2085266,0.05960026383,394.2085266,0.3301222622,394.2085266,0.3303789794,
393.9761047,0.05948266387,393.9761047,0.3274469972,393.9761047,0.3276951611,
393.7823792,0.05943294242,393.7823792,0.3251173198,393.7823792,0.3253243268,
393.588623,0.05936450139,393.588623,0.322611481,393.588623,0.3229539096,
393.394928,0.05929197744,393.394928,0.3197158277,393.394928,0.3199940324,
393.2012024,0.05922242999,393.2012024,0.3164533973,393.2012024,0.3166953325,
393.0074158,0.05924420431,393.0074158,0.3141781092,393.0074158,0.3144112825,
392.7749329,0.05925307795,392.7749329,0.3121155798,392.7749329,0.3124288023,
392.5811768,0.05922011659,392.5811768,0.3107212484,392.5811768,0.3109186888,
392.3874207,0.05923886597,392.3874207,0.3091115355,392.3874207,0.3093432486,
392.1936646,0.0592500791,392.1936646,0.3080149591,392.1936646,0.3081974387,
391.9998779,0.05925669521,391.9998779,0.3063156009,391.9998779,0.3065345287,
391.8061218,0.05926708132,391.8061218,0.3048652112,391.8061218,0.3051171005,
391.5735474,0.05921495333,391.5735474,0.303768605,391.5735474,0.3039287329,
391.3797607,0.05916710198,391.3797607,0.3027619123,391.3797607,0.3030724823,
391.1859741,0.05906524882,391.1859741,0.3019380271,391.1859741,0.3021443486,
390.992157,0.05897871777,390.992157,0.3012992144,390.992157,0.3015702665,
390.7983704,0.05888573825,390.7983704,0.3006485403,390.7983704,0.3008433878,
390.6045227,0.0588026233,390.6045227,0.3001563549,390.6045227,0.3003862202,
390.3719482,0.05870746076,390.3719482,0.2998481989,390.3719482,0.3001075685,
390.1781006,0.05865975469,390.1781006,0.2997092307,390.1781006,0.2998720706,
389.9842834,0.05863951892,389.9842834,0.2995461524,389.9842834,0.2997854352,
389.7904663,0.05858805776,389.7904663,0.2996377945,389.7904663,0.2997944951,
389.5965881,0.05854925141,389.5965881,0.2997660637,389.5965881,0.3000404537,
389.4027405,0.05853941664,389.4027405,0.300073117,389.4027405,0.3003006876,
389.2088623,0.05846679211,389.2088623,0.3004398346,389.2088623,0.3006388247,
388.9762573,0.05852937698,388.9762573,0.300814271,388.9762573,0.3009746075,
388.7823792,0.05846048519,388.7823792,0.3012823164,388.7823792,0.301494807,
388.588501,0.05836214125,388.588501,0.3020038009,388.588501,0.3021403551,
388.3946228,0.05838642269,388.3946228,0.3027040064,388.3946228,0.302914232,
388.2007446,0.05842817575,388.2007446,0.3036672473,388.2007446,0.3038734496,
388.0068359,0.05837860331,388.0068359,0.304635793,388.0068359,0.3047088683,
387.7741394,0.05837099254,387.7741394,0.3054682612,387.7741394,0.3056798577,
387.5802612,0.05841695145,387.5802612,0.3063229322,387.5802612,0.3064121008,
387.386322,0.05836151913,387.386322,0.3073830009,387.386322,0.3074661195,
387.1924133,0.05836240575,387.1924133,0.3083776236,387.1924133,0.3086429834,
386.9984741,0.05831281468,386.9984741,0.3101013601,386.9984741,0.3102981448,
386.8045349,0.05829345435,386.8045349,0.3115863204,386.8045349,0.3117509186,
386.5718384,0.0582366474,386.5718384,0.3130405247,386.5718384,0.3133341968,
386.3778992,0.05821776018,386.3778992,0.314353466,386.3778992,0.3145464659,
386.1839294,0.05821148679,386.1839294,0.3159939945,386.1839294,0.3161349595,
385.9899902,0.05819372833,385.9899902,0.3172787428,385.9899902,0.3174564242,
385.796051,0.05817925557,385.796051,0.319008261,385.796051,0.3190748394,
385.6020508,0.05818126723,385.6020508,0.3205889761,385.6020508,0.3207282722,
385.4081116,0.05820109695,385.4081116,0.3217746913,385.4081116,0.3219800889,
385.175293,0.05817315727,385.175293,0.32354182,385.175293,0.3236380219,
384.9813538,0.05817481503,384.9813538,0.3251458704,384.9813538,0.3253310323,
384.787323,0.05821900442,384.787323,0.3265093565,384.787323,0.3265205026,
384.5933228,0.05830106139,384.5933228,0.3282688558,384.5933228,0.3284134269,
384.399353,0.05832684785,384.399353,0.3296607137,384.399353,0.3297670186,
384.2053528,0.05837573111,384.2053528,0.3306310773,384.2053528,0.3308165371,
383.9725342,0.05838873237,383.9725342,0.3319265246,383.9725342,0.3320255876,
383.7785034,0.05839388445,383.7785034,0.3331404626,383.7785034,0.3332500458,
383.5844727,0.05843655393,383.5844727,0.3344625235,383.5844727,0.3346292377,
383.3904114,0.05849075317,383.3904114,0.3360035419,383.3904114,0.3361143768,
383.1963806,0.05846762285,383.1963806,0.3378245234,383.1963806,0.3378260136,
383.0023499,0.05848405883,383.0023499,0.3387837708,383.0023499,0.3389623761,
382.8083191,0.0585728921,382.8083191,0.3397274017,382.8083191,0.3398551941,
382.5754089,0.058516372,382.5754089,0.3410690129,382.5754089,0.3411341906,
382.3813782,0.05852149799,382.3813782,0.3421072066,382.3813782,0.3421520591,
382.1873169,0.05865824595,382.1873169,0.3428716362,382.1873169,0.3429813087,
381.9932251,0.05862180144,381.9932251,0.3440256119,381.9932251,0.3442454338,
381.7991333,0.05870998278,381.7991333,0.3449503183,381.7991333,0.3450446129,
381.605072,0.05882428959,381.605072,0.3455263674,381.605072,0.3455705345,
381.3721619,0.0589125976,381.3721619,0.3461996317,381.3721619,0.3463526368,
381.1780396,0.05898811668,381.1780396,0.3466954827,381.1780396,0.3468745947,
380.9839478,0.05897097662,380.9839478,0.3472664356,380.9839478,0.3473305404,
380.7898254,0.05906409025,380.7898254,0.3476762772,380.7898254,0.3478016257,
380.5957336,0.05915562063,380.5957336,0.347984761,380.5957336,0.3481321633,
380.4016113,0.05912426859,380.4016113,0.348443538,380.4016113,0.3483829498,
380.207489,0.05929865316,380.207489,0.3484372795,380.207489,0.348557502,
379.9745178,0.05933001637,379.9745178,0.348838836,379.9745178,0.3488816619,
379.780365,0.05934678391,379.780365,0.3490027785,379.780365,0.3491089344,
379.5862427,0.05952437595,379.5862427,0.349063009,379.5862427,0.3491781652,
379.3920898,0.05955326185,379.3920898,0.3492845297,379.3920898,0.3494310379,
379.197937,0.05969749391,379.197937,0.3491927087,379.197937,0.3493548334,
379.0037842,0.05977154151,379.0037842,0.3493403196,379.0037842,0.3493613899,
378.7707214,0.05991379544,378.7707214,0.3492861092,378.7707214,0.3494371176,
378.5765991,0.06000767648,378.5765991,0.3493236601,378.5765991,0.3494015634,
378.3824158,0.06016876921,378.3824158,0.3492438495,378.3824158,0.3494207859,
378.1882019,0.06037227437,378.1882019,0.3491367996,378.1882019,0.3492881954,
377.9940186,0.06050330028,377.9940186,0.3491698802,377.9940186,0.3492928445,
377.7998352,0.06059953943,377.7998352,0.3490615189,377.7998352,0.3493644595,
377.6056213,0.06075099483,377.6056213,0.3492085636,377.6056213,0.3492714465,
377.3725586,0.06084800512,377.3725586,0.349222213,377.3725586,0.3493544757,
377.1783752,0.06089809537,377.1783752,0.3493258357,377.1783752,0.3494488299,
376.9841614,0.06101062894,376.9841614,0.3495057523,376.9841614,0.3495555222,
376.789917,0.06114804372,376.789917,0.3496026397,376.789917,0.3496985435,
376.5956726,0.06117194518,376.5956726,0.3497012556,376.5956726,0.3499012589,
376.4014282,0.06122484431,376.4014282,0.3499363661,376.4014282,0.350039959,
376.2072144,0.06130407378,376.2072144,0.3499729931,376.2072144,0.3501304686,
375.9740601,0.06067520007,375.9740601,0.3499148488,375.9740601,0.3500134051,
375.7798462,0.06088049337,375.7798462,0.3500615358,375.7798462,0.350230217,
375.5855713,0.06084523723,375.5855713,0.3502662182,375.5855713,0.3505004644,
375.3912964,0.06096317619,375.3912964,0.3504890501,375.3912964,0.3506709337,
375.197052,0.06106038392,375.197052,0.3508951664,375.197052,0.3508975506,
375.0027466,0.06116255745,375.0027466,0.351136446,375.0027466,0.3512311876,
374.8084412,0.06127709523,374.8084412,0.3513002098,374.8084412,0.3515581191,
374.5753174,0.06144366786,374.5753174,0.3519235849,374.5753174,0.3519140482,
374.381012,0.06154280156,374.381012,0.3522333801,374.381012,0.3521817029,
374.1867371,0.06158363819,374.1867371,0.3524365723,374.1867371,0.3525525033,
373.9924316,0.06172925979,373.9924316,0.3526999354,373.9924316,0.3527873158,
373.7980957,0.06175483391,373.7980957,0.3530724943,373.7980957,0.3532355726,
373.6037903,0.0619251132,373.6037903,0.3533394039,373.6037903,0.3534196615,
373.3706055,0.06198550761,373.3706055,0.3540442586,373.3706055,0.3541889787,
373.1762695,0.06211708114,373.1762695,0.3544479609,373.1762695,0.3547394276,
372.9819336,0.06223485991,372.9819336,0.3549052775,372.9819336,0.3549666107,
372.7875671,0.06227002293,372.7875671,0.3552001119,372.7875671,0.3552877605,
372.5932312,0.0624499768,372.5932312,0.3554037511,372.5932312,0.3556358218,
372.3988953,0.06244438887,372.3988953,0.3558235168,372.3988953,0.356032759,
372.2045288,0.0626327917,372.2045288,0.3562855124,372.2045288,0.3564129472,
371.971283,0.06273877621,371.971283,0.35691607,371.971283,0.3570789993,
371.7769165,0.06286294013,371.7769165,0.3572139442,371.7769165,0.3575569391,
371.58255,0.06300962716,371.58255,0.3577201664,371.58255,0.3578806221,
371.3881531,0.06311672181,371.3881531,0.3581152558,371.3881531,0.3582238257,
371.1937561,0.06319557875,371.1937561,0.3584124744,371.1937561,0.3586169183,
370.9993896,0.06330672652,370.9993896,0.3588080108,370.9993896,0.3588836193,
370.8049622,0.06342108548,370.8049622,0.3592818677,370.8049622,0.3594566584,
370.5716553,0.06354506314,370.5716553,0.3597607613,370.5716553,0.3597895503,
370.3772583,0.06358977407,370.3772583,0.360021174,370.3772583,0.360142976,
370.1828613,0.06370992959,370.1828613,0.3604138196,370.1828613,0.3603815138,
369.9884033,0.06374884397,369.9884033,0.3606823981,369.9884033,0.3606992364,
369.7939758,0.0638474524,369.7939758,0.3609647155,369.7939758,0.3611833453,
369.5995483,0.06396824867,369.5995483,0.3612920642,369.5995483,0.3614557087,
369.4051208,0.0640860796,369.4051208,0.3614597023,369.4051208,0.3614784181,
369.1717834,0.06419485062,369.1717834,0.3619884253,369.1717834,0.3618852794,
368.9772949,0.06412217766,368.9772949,0.3619521558,368.9772949,0.3620801866,
368.7828674,0.06427354366,368.7828674,0.361962527,368.7828674,0.3620865941,
368.5884094,0.06427823007,368.5884094,0.36223194,368.5884094,0.3622612655,
368.3939209,0.06445076317,368.3939209,0.3619965613,368.3939209,0.3620981276,
368.1994934,0.0645911321,368.1994934,0.3620514274,368.1994934,0.3620234132,
368.0049744,0.0646346882,368.0049744,0.361841619,368.0049744,0.3620027304,
367.7716064,0.06477003545,367.7716064,0.361418128,367.7716064,0.3617144823,
367.5770874,0.06481719017,367.5770874,0.3611850142,367.5770874,0.3614012897,
367.3825989,0.06492133439,367.3825989,0.3610342443,367.3825989,0.3609537184,
367.1881409,0.06502132118,367.1881409,0.3603349626,367.1881409,0.3603855968,
366.9935913,0.06508272141,366.9935913,0.3596558869,366.9935913,0.3596870899,
366.7990723,0.06509312987,366.7990723,0.3589271307,366.7990723,0.3590307236,
366.6045227,0.0652436614,366.6045227,0.3580683768,366.6045227,0.3580316305,
366.3711243,0.0653026253,366.3711243,0.3568443656,366.3711243,0.3570067286,
366.1766052,0.0653532967,366.1766052,0.3557678163,366.1766052,0.355948925,
365.9820557,0.06540553272,365.9820557,0.3544489741,365.9820557,0.3545498848,
365.7875061,0.06545940042,,,365.7875061,0.3529662192,
365.5929871,0.06548995525,,,365.5929871,0.3517363369,
365.3984375,0.0655651167,,,365.3984375,0.3503556848,
365.2038574,0.06564878672,,,365.2038574,0.3486862481,
364.9703979,0.06642433256,,,364.9703979,0.3465809524,
364.7758179,0.06651037186,,,364.7758179,0.3443027735,
364.5812073,0.066667974,,,364.5812073,0.3417651951,
364.3866577,0.06671962142,,,364.3866577,0.3397290409,
364.1920471,0.06674892455,,,364.1920471,0.3379148543,
363.997467,0.06677392125,,,363.997467,0.3356994689,
363.802887,0.06684605032,,,363.802887,0.3329713047,
363.5693665,0.06682485342,,,363.5693665,0.3295611739,
363.3747559,0.066872105,,,363.3747559,0.3252663612,
363.1801147,0.06691546738,,,363.1801147,0.3222323656,
362.9854736,0.06703479588,,,362.9854736,0.3195732832,
362.790863,0.06711488217,,,362.790863,0.317281574,
362.5962524,0.06721846014,,,362.5962524,0.3145474792,
362.4015808,0.06732299924,,,362.4015808,0.312630713,
362.2069397,0.06748568267,,,362.2069397,0.309243083,
361.9733887,0.0676625818,,,361.9733887,0.3053764701,
361.778717,0.06769939512,,,361.778717,0.3027788997,
361.5840454,0.06775727123,,,361.5840454,0.3002500236,
361.3893738,0.06781978905,,,361.3893738,0.2969906926,
361.1947021,0.06774123758,,,361.1947021,0.2940243483,
361.0000305,0.06771914661,,,361.0000305,0.2907107472,
360.8053589,0.06771527976,,,360.8053589,0.2876007855,
360.5717163,0.06777697057,,,360.5717163,0.2846368253,
360.3770142,0.06790576875,,,360.3770142,0.2821262181,
360.1823425,0.06789668649,,,360.1823425,0.2793648839,
359.9876404,0.06788890809,,,359.9876404,0.2766036093,
359.7929077,0.06791639328,,,359.7929077,0.2734906673,
359.598175,0.06792292744,,,359.598175,0.2703945339,
359.4034729,0.06791006774,,,359.4034729,0.267942667,
359.1697998,0.06787843257,,,359.1697998,0.265576303,
358.9750366,0.06780072302,,,358.9750366,0.2634660006,
358.7803345,0.06785265356,,,358.7803345,0.2611581385,
358.5855713,0.06789426506,,,358.5855713,0.2587692142,
358.3908386,0.06805234402,,,358.3908386,0.255892694,
358.1960754,0.06816592813,,,358.1960754,0.2539913952,
358.0013123,0.06818486005,,,358.0013123,0.2526429594,
357.8065796,0.06834255904,,,357.8065796,0.2510991693,
357.5728149,0.06845234334,,,357.5728149,0.2492693365,
357.3780823,0.06843712926,,,357.3780823,0.2480375171,
357.1832581,0.06842212379,,,357.1832581,0.2456914335,
356.9884644,0.06841400266,,,356.9884644,0.2435879558,
356.7936707,0.06834789366,,,356.7936707,0.2420361042,
356.598877,0.06832083315,,,356.598877,0.2406526804,
356.4040833,0.06838043034,,,356.4040833,0.2389734983,
356.1702881,0.06829787046,,,356.1702881,0.2375176251,
355.9754639,0.06848173589,,,355.9754639,0.2358381003,
355.7806702,0.06845328212,,,355.7806702,0.2345720679,
355.5858459,0.06855066121,,,355.5858459,0.2334315181,
355.3909912,0.06848006696,,,355.3909912,0.232412979,
355.1961365,0.06849098206,,,355.1961365,0.2310963571,
355.0013123,0.06857351959,,,355.0013123,0.2298450321,
354.806488,0.06854435802,,,354.806488,0.2285667062,
354.5726318,0.0685967952,,,354.5726318,0.2271177322,
354.3777771,0.06864473224,,,354.3777771,0.2263351679,
354.1829529,0.06870755553,,,354.1829529,0.2254637033,
353.9880371,0.06787970662,,,353.9880371,0.2245045453,
353.7931519,0.06795655936,,,353.7931519,0.2235482782,
353.5982971,0.06794448197,,,353.5982971,0.2227368355,
353.4034119,0.06800950319,,,353.4034119,0.2213730812,
353.1695251,0.06797142327,,,353.1695251,0.2203000188,
352.9746399,0.0680430159,,,352.9746399,0.2193669826,
352.7797241,0.06795383245,,,352.7797241,0.2187161595,
352.5848083,0.06792834401,,,352.5848083,0.2179095447,
352.3898926,0.06809528172,,,352.3898926,0.2170295864,
352.1949768,0.06804698706,,,352.1949768,0.2159702629,
352.000061,0.06803666055,,,352.000061,0.2150079906,
351.8051147,0.06800302863,,,351.8051147,0.2140478939,
351.5711975,0.06799013168,,,351.5711975,0.2131427228,
351.3762512,0.0680244565,,,351.3762512,0.2122085094,
351.1813049,0.068086043,,,351.1813049,0.2113841474,
350.9863892,0.06806179136,,,350.9863892,0.2102929503,
350.7914124,0.06820417941,,,350.7914124,0.2091490328,
350.5964355,0.06808728725,,,350.5964355,0.2085177749,
350.4014587,0.0681431517,,,350.4014587,0.2076072693,
350.2064514,0.06814694405,,,350.2064514,0.2065310776,
349.9725037,0.06812786311,,,349.9725037,0.2053166479,
349.7775269,0.06818025559,,,349.7775269,0.2039948404,
349.58255,0.06820248812,,,349.58255,0.2027536184,
349.3875427,0.06822419912,,,349.3875427,0.2017338574,
349.1925354,0.06833552569,,,349.1925354,0.2006493509,
348.9975586,0.06824292243,,,348.9975586,0.1996361464,
348.8025208,0.06826839596,,,348.8025208,0.1984263211,
348.568512,0.06828414649,,,348.568512,0.196453169,
348.3734741,0.06824352592,,,348.3734741,0.1944889277,
348.1784363,0.06828099489,,,348.1784363,0.1928215027,
347.983429,0.06821008772,,,347.983429,0.1915361583,
347.7883911,0.06825700402,,,347.7883911,0.1900883913,
347.5933533,0.06826993823,,,347.5933533,0.1884168088,
347.3982849,0.06826945394,,,347.3982849,0.1870207191,
347.2032166,0.06834565103,,,347.2032166,0.1844931245,
346.9691772,0.06835003942,,,346.9691772,0.1818312705,
346.7740784,0.06837937236,,,346.7740784,0.1801113188,
346.57901,0.06839746237,,,346.57901,0.1782804877,
346.3839722,0.06849189103,,,346.3839722,0.1760687679,
346.1888733,0.06845206767,,,346.1888733,0.1744162589,
345.9937744,0.06931052357,,,345.9937744,0.1721039265,
345.7987061,0.06932983547,,,345.7987061,0.1699605733,
345.6035767,0.06944736838,,,345.6035767,0.1679273248,
345.3694763,0.06941857189,,,345.3694763,0.1658813804,
345.1743469,0.06949700415,,,345.1743469,0.1636966467,
344.9792175,0.06950380653,,,344.9792175,0.1615395993,
344.7841492,0.06950866431,,,344.7841492,0.1592404544,
344.5889893,0.06951119006,,,344.5889893,0.1569501609,
344.3938599,0.0695643872,,,344.3938599,0.1551560163,
344.1987,0.06954275072,,,344.1987,0.1536600292,
344.0036011,0.06874976307,,,344.0036011,0.1517705023,
343.7694092,0.06870421767,,,343.7694092,0.1495840251,
343.5742798,0.0687059164,,,343.5742798,0.1472390592,
343.3791199,0.06863663346,,,343.3791199,0.1445075572,
343.18396,0.0686795339,,,343.18396,0.1424726248,
342.9888,0.06860858947,,,342.9888,0.1408385038,
342.7936096,0.06864976138,,,342.7936096,0.1391651034,
342.5984192,0.06865082681,,,342.5984192,0.1373475939,
342.4032593,0.06861965358,,,342.4032593,0.1358803213,
342.1690063,0.06861762702,,,342.1690063,0.1329276562,
341.9738464,0.06875304133,,,341.9738464,0.1309774369,
341.778656,0.06873603165,,,341.778656,0.1294071674,
341.5834351,0.06871777028,,,341.5834351,0.127870068,
341.3882446,0.06872037798,,,341.3882446,0.1261525899,
341.1930237,0.06875540316,,,341.1930237,0.1248022169,
340.9977722,0.06876320392,,,340.9977722,0.1228621975,
340.8025818,0.0687880367,,,340.8025818,0.1212995127,
340.5682678,0.06872080266,,,340.5682678,0.1198063493,
340.3730469,0.06881457567,,,340.3730469,0.1184172258,
340.1778259,0.06879425794,,,340.1778259,0.1169924438,
339.9825745,0.06878485531,,,339.9825745,0.1156279519,
339.7872925,0.06883086264,,,339.7872925,0.1139948368,
339.5920715,0.06881009042,,,339.5920715,0.1125859395,
339.3967896,0.06881275773,,,339.3967896,0.1114422232,
339.2015381,0.06881773472,,,339.2015381,0.1104317158,
339.0062866,0.06888412684,,,339.0062866,0.1093779951,
338.7719116,0.06885968149,,,338.7719116,0.1081789285,
338.5766602,0.06893631071,,,338.5766602,0.1067828164,
338.3813477,0.06890627742,,,338.3813477,0.1052379385,
338.1860657,0.0688315928,,,338.1860657,0.1043327153,
337.9907532,0.06890333444,,,337.9907532,0.1034116745,
337.7954407,0.06890542805,,,337.7954407,0.1025508568,
337.6001587,0.06893294305,,,337.6001587,0.1015554741,
337.4048767,0.06892857701,,,337.4048767,0.1007288098,
337.1704407,0.06888516247,,,337.1704407,0.09918911755,
336.9751587,0.06894996017,,,336.9751587,0.09804616868,
336.7798157,0.06893531233,,,336.7798157,0.09729704261,
336.5844727,0.06897875667,,,336.5844727,0.0963421464,
336.3891296,0.06893303245,,,336.3891296,0.09548254311,
336.1937561,0.06897092611,,,336.1937561,0.09469641745,
335.9984436,0.0689612478,,,335.9984436,0.09365012497,
335.8030701,0.06895979494,,,335.8030701,0.09282960743,
335.5686646,0.06905735284,,,335.5686646,0.09192819893,
335.373291,0.06900858134,,,335.373291,0.09127382934,
335.1779175,0.06898877025,,,335.1779175,0.09053194523,
334.9825134,0.06977818161,,,334.9825134,0.08987040818,
334.7871399,0.06978684664,,,334.7871399,0.08900685608,
334.5917969,0.06981752068,,,334.5917969,0.08821205795,
334.3963928,0.06975830346,,,334.3963928,0.08769051731,
334.2009583,0.06984363496,,,334.2009583,0.08692696691,
334.0055847,0.06986758858,,,334.0055847,0.08641821146,
333.7710876,0.06982399523,,,333.7710876,0.08569254726,
333.5757141,0.0698703602,,,333.5757141,0.08477523178,
333.380249,0.06988096982,,,333.380249,0.08384116739,
333.1848145,0.06993469596,,,333.1848145,0.08300874382,
332.9894409,0.06986491382,,,332.9894409,0.08255326748,
332.7940063,0.06995750219,,,332.7940063,0.08183699846,
332.5985413,0.06989945471,,,332.5985413,0.08119639754,
332.4031372,0.06991508603,,,332.4031372,0.0805259794,
332.1685486,0.06985512376,,,332.1685486,0.07935052365,
331.973114,0.06988637894,,,331.973114,0.07843265682,
331.7776489,0.06980572641,,,331.7776489,0.07770577818,
331.5821838,0.06980672479,,,331.5821838,0.07693360746,
331.3867493,0.06979128718,,,331.3867493,0.07612609118,
331.1912842,0.06979788095,,,331.1912842,0.07544774562,
330.9957581,0.06971851736,,,330.9957581,0.07453943789,
330.8002625,0.06974225491,,,330.8002625,0.07371670008,
330.6047974,0.06976085901,,,330.6047974,0.07304246724,
330.3702087,0.06965301931,,,330.3702087,0.07222103328,
330.1747131,0.06968693435,,,330.1747131,0.07140635699,
329.9792175,0.06967225671,,,329.9792175,0.07054065168,
329.7836914,0.06971243769,,,329.7836914,0.06957532465,
329.5881958,0.06965059042,,,329.5881958,0.06877927482,
329.3926697,0.06975963712,,,329.3926697,0.06803060323,
329.1971436,0.06970155984,,,329.1971436,0.06743182987,
329.0016174,0.06974292547,,,329.0016174,0.06672761589,
328.7669678,0.06977113336,,,328.7669678,0.06581158936,
328.5714417,0.06975699216,,,328.5714417,0.06502718478,
328.375885,0.06965472549,,,328.375885,0.06413690746,
328.1803284,0.06964165717,,,328.1803284,0.06335174292,
327.9848022,0.06962904334,,,327.9848022,0.06275396794,
327.7892151,0.06958325207,,,327.7892151,0.06219817325,
327.5936279,0.06961561739,,,327.5936279,0.06138167903,
327.3981018,0.06956657022,,,327.3981018,0.06088490412,
327.2025146,0.06958529353,,,327.2025146,0.0599745959,
326.9678345,0.06967368722,,,326.9678345,0.05903295055,
326.7722473,0.06970550865,,,326.7722473,0.05847354606,
326.5766602,0.06968715042,,,326.5766602,0.05795446411,
326.381073,0.06979444623,,,326.381073,0.05731269717,
326.1854553,0.06974073499,,,326.1854553,0.05695771053,
325.9898376,0.06974726915,,,325.9898376,0.05644324049,
325.7942505,0.06969307363,,,325.7942505,0.05594265833,
325.5986328,0.06958450377,,,325.5986328,0.05557287112,
325.4030151,0.0696663633,,,325.4030151,0.05511319637,
325.1682739,0.06957614422,,,325.1682739,0.05470013246,
324.9726257,0.06961452216,,,324.9726257,0.05422703922,
324.7769775,0.06967490166,,,324.7769775,0.05375454947,
324.5813599,0.0698504746,,,324.5813599,0.05320096016,
324.3856812,0.06986938417,,,324.3856812,0.05290045217,
324.1900635,0.06994220614,,,324.1900635,0.05262183398,
323.9944458,0.07000902295,,,323.9944458,0.05235551298,
323.7987366,0.07005339861,,,323.7987366,0.05210321769,
323.6030579,0.07011323422,,,323.6030579,0.05179162696,
323.3682861,0.07007432729,,,323.3682861,0.05156977102,
323.1725769,0.07000111789,,,323.1725769,0.05142853409,
322.9769287,0.06999029219,,,322.9769287,0.05124478787,
322.7812195,0.06997346878,,,322.7812195,0.05107156932,
322.5855408,0.06994388252,,,322.5855408,0.05098536238,
322.3898621,0.06994208694,,,322.3898621,0.05092155933,
322.1941528,0.06997225434,,,322.1941528,0.05059374124,
321.9984436,0.06993323565,,,321.9984436,0.05043107644,
321.8027344,0.06986892968,,,321.8027344,0.05040688813,
321.5678711,0.06988020986,,,321.5678711,0.05033409595,
321.3721313,0.06995695829,,,321.3721313,0.05017727986,
321.1764526,0.06993594766,,,321.1764526,0.05014653876,
320.9807129,0.06990265101,,,320.9807129,0.05017054081,
320.7849731,0.06998055428,,,320.7849731,0.0500532873,
320.5892639,0.06989888102,,,320.5892639,0.05014796183,
320.3934937,0.06998310983,,,320.3934937,0.05005900934,
320.1977234,0.07004567236,,,320.1977234,0.05006420612,
320.0020142,0.070094347,,,320.0020142,0.05001369491,
319.7670593,0.07022638619,,,319.7670593,0.04986950755,
319.5713501,0.0703433454,,,319.5713501,0.04976473004,
319.3755493,0.07040708512,,,319.3755493,0.04980668053,
319.1797791,0.07044617087,,,319.1797791,0.04987877235,
318.9840088,0.07048654556,,,318.9840088,0.04997134954,
318.788208,0.07054037601,,,318.788208,0.04999777675,
318.5924377,0.07054065168,,,318.5924377,0.05033130571,
318.3966675,0.0705813393,,,318.3966675,0.05049070716,
318.2008667,0.07052636892,,,318.2008667,0.05072650313,
318.0050354,0.07054784149,,,318.0050354,0.0508845672,
317.7700806,0.0706243664,,,317.7700806,0.05097287521,
317.5742493,0.07065324485,,,317.5742493,0.05121111497,
317.378418,0.07067325711,,,317.378418,0.05136676133,
317.1826172,0.07074350119,,,317.1826172,0.0517234765,
316.9867859,0.07075309753,,,316.9867859,0.05202789605,
316.7909546,0.07084414363,,,316.7909546,0.05227097869,
316.5951233,0.07085907459,,,316.5951233,0.05257832631,
316.3992615,0.07082787156,,,316.3992615,0.05299326777,
316.2034302,0.07091148943,,,316.2034302,0.05333244056,
315.9684143,0.07093282789,,,315.9684143,0.05378176644,
315.7725525,0.07109512389,,,315.7725525,0.05407790095,
315.5766907,0.07112415135,,,315.5766907,0.05441014841,
315.3808594,0.07126703113,,,315.3808594,0.05454317108,
315.1849365,0.07138771564,,,315.1849365,0.05466029048,
314.9891052,0.07145673782,,,314.9891052,0.05491008237,
314.7932129,0.07160070539,,,314.7932129,0.05514637753,
314.59729,0.07173870504,,,314.59729,0.05548079684,
314.4014587,0.07178822905,,,314.4014587,0.05593046546,
314.1663208,0.0718100667,,,314.1663208,0.05638552457,
313.9704285,0.0718171522,,,313.9704285,0.05671508983,
313.7745667,0.07174538821,,,313.7745667,0.05725982785,
313.5786438,0.0717516467,,,313.5786438,0.05779150128,
313.3827209,0.07177201658,,,313.3827209,0.05848545209,
313.1868286,0.07170535624,,,313.1868286,0.05912011489,
312.9908752,0.07178163528,,,312.9908752,0.05953524262,
312.7949524,0.07176031917,,,312.7949524,0.06003008783,
312.5990295,0.07176154107,,,312.5990295,0.06053135917,
312.4030762,0.07176245749,,,312.4030762,0.06090750918,
312.1679688,0.07186156511,,,312.1679688,0.06163518503,
311.9720154,0.07195485383,,,311.9720154,0.06220008433,
311.7760315,0.0720449239,,,311.7760315,0.06269621849,
311.5801086,0.07205904275,,,311.5801086,0.06316910684,
311.3841248,0.07216310501,,,311.3841248,0.06376674026,
311.1881714,0.07219238579,,,311.1881714,0.06432955712,
310.992218,0.07220754772,,,310.992218,0.0650017485,
310.7962036,0.07228416204,,,310.7962036,0.06565327197,
310.6002502,0.07238968462,,,310.6002502,0.06618947536,
310.4042053,0.07235261798,,,310.4042053,0.06674282998,
310.1690369,0.07240411639,,,310.1690369,0.06749475002,
309.973053,0.07246182859,,,309.973053,0.06822450459,
309.7770996,0.07252728939,,,309.7770996,0.06905653328,
309.5810547,0.07255834341,,,309.5810547,0.06986093521,
309.3850403,0.07264841348,,,309.3850403,0.07051126659,
309.1890564,0.07265144587,,,309.1890564,0.07112372667,
308.9930115,0.07270818204,,,308.9930115,0.07166224718,
308.7969971,0.07277619094,,,308.7969971,0.07239528,
308.6009827,0.0727891326,,,308.6009827,0.07308706641,
308.3656921,0.072936818,,,308.3656921,0.07437099516,
308.1697083,0.07299987227,,,308.1697083,0.07515468448,
307.9736633,0.07301570475,,,307.9736633,0.07585067302,
307.7775879,0.07308351249,,,307.7775879,0.07663870603,
307.581543,0.07304513454,,,307.581543,0.07756011933,
307.3854675,0.07306988537,,,307.3854675,0.07839117199,
307.1894531,0.07296738029,,,307.1894531,0.07983846217,
306.9933777,0.0730015263,,,306.9933777,0.08115710318,
306.7973022,0.07298817486,,,306.7973022,0.08213976026,
306.6011963,0.07300651819,,,306.6011963,0.08306562901,
306.3659058,0.073056072,,,306.3659058,0.08419302851,
306.1698303,0.07307775319,,,306.1698303,0.08516971022,
305.9737244,0.07308963686,,,305.9737244,0.08634202927,
305.7776489,0.07314045727,,,305.7776489,0.08753481507,
305.581543,0.07309371233,,,305.581543,0.08861944824,
305.385437,0.07313010097,,,305.385437,0.08966192603,
305.1893311,0.07312578708,,,305.1893311,0.09087498486,
304.9932251,0.07312253863,,,304.9932251,0.09212616086,
304.7970886,0.07312654704,,,304.7970886,0.09347891808,
304.6009827,0.07314330339,,,304.6009827,0.09529720247,
304.3656006,0.07317379117,,,304.3656006,0.09677069634,
304.1694946,0.07314695418,,,304.1694946,0.09803339094,
303.9733582,0.07318828255,,,303.9733582,0.09920652211,
303.7772217,0.07319630682,,,303.7772217,0.1008152589,
303.5810852,0.07321310043,,,303.5810852,0.1022868231,
303.3849182,0.07322575152,,,303.3849182,0.1048179939,
303.1887512,0.07316824049,,,303.1887512,0.1071482152,
302.9926147,0.07386036962,,,302.9926147,0.1091851369,
302.7964478,0.07393439114,,,302.7964478,0.110654287,
302.6002808,0.07401103526,,,302.6002808,0.112584427,
302.4040833,0.07404053211,,,302.4040833,0.1144299507,
302.1687012,0.0740980655,,,302.1687012,0.1172059253,
301.9724731,0.07412581891,,,301.9724731,0.1199187487,
301.7763062,0.07418418676,,,301.7763062,0.1220288798,
301.5801086,0.07424637675,,,301.5801086,0.124273628,
301.3839111,0.0742386952,,,301.3839111,0.1265917122,
301.1877136,0.07421999425,,,301.1877136,0.1293008924,
300.9915161,0.07416149974,,,300.9915161,0.1324314773,
300.7952881,0.07421320677,,,300.7952881,0.1355756372,
300.5990906,0.07418612391,,,300.5990906,0.138323158,
300.4028931,0.07427269965,,,300.4028931,0.1408081502,
300.1674194,0.07425589859,,,300.1674194,0.1444377005,
299.9711914,0.07424327731,,,299.9711914,0.1476273388,

Baseline 100%T,
Baseline 100%T
Collection Time: 1/24/2020 3:25:11 PM
Operator Name  : CameronSlaten
Scan Version 5.1.0.1016
Parameter List :
Instrument  Cary 60
Instrument Version  2.00
Start (nm)  550.0
Stop (nm)  300.0
X Mode  Nanometers
Y Mode  Abs
UV-Vis Scan Rate (nm/min)  60.000
UV-Vis Data Interval (nm)  0.20
UV-Vis Ave. Time (sec)  0.2000
Beam Mode  Dual Beam
Baseline Correction  On
Baseline Type  Baseline correction
Baseline File Name
Baseline Std Ref File Name
Cycle Mode  Off
Method Log     :
Method Name    :
Date/Time stamp: 1/24/2020 3:24:17 PM
Method Modifications:
UVVIS SAT Changed: 1/24/2020 3:24:49 PM, Old:0.0125, New:0.2000
Common SAT Changed: 1/24/2020 3:24:49 PM, Old:0.0125, New:0.2000
Comment Changed: 1/24/2020 3:25:08 PM, Old:, New:Pyranine in water, natural pH
Operator Changed: 1/24/2020 3:25:08 PM, Old:, New:CameronSlaten
X Start nm Changed: 1/24/2020 3:25:08 PM, Old:  800.0, New:  550.0
X Stop nm Changed: 1/24/2020 3:25:08 PM, Old:  200.0, New:  300.0
Common Interval nm Changed: 1/24/2020 3:25:08 PM, Old:     5.00, New:     0.20
Baseline Correction Changed: 1/24/2020 3:25:08 PM, Old:0, New:1
End Method Modifications
<Current Wavelength> , 300.4

Pyranine in d_H2O,
Pyranine in d_H2O
Collection Time: 1/24/2020 3:32:18 PM
Operator Name  : CameronSlaten
Scan Version 5.1.0.1016
Parameter List :
Instrument  Cary 60
Instrument Version  2.00
Start (nm)  550.0
Stop (nm)  300.0
X Mode  Nanometers
Y Mode  Abs
UV-Vis Scan Rate (nm/min)  60.000
UV-Vis Data Interval (nm)  0.20
UV-Vis Ave. Time (sec)  0.2000
Beam Mode  Dual Beam
Baseline Correction  On
Baseline Type  Baseline correction
Baseline File Name
Baseline Std Ref File Name
Cycle Mode  Off
Method Log     :
Method Name    :
Date/Time stamp: 1/24/2020 3:24:17 PM
Method Modifications:
UVVIS SAT Changed: 1/24/2020 3:24:49 PM, Old:0.0125, New:0.2000
Common SAT Changed: 1/24/2020 3:24:49 PM, Old:0.0125, New:0.2000
Comment Changed: 1/24/2020 3:25:08 PM, Old:, New:Pyranine in water, natural pH
Operator Changed: 1/24/2020 3:25:08 PM, Old:, New:CameronSlaten
X Start nm Changed: 1/24/2020 3:25:08 PM, Old:  800.0, New:  550.0
X Stop nm Changed: 1/24/2020 3:25:08 PM, Old:  200.0, New:  300.0
Common Interval nm Changed: 1/24/2020 3:25:08 PM, Old:     5.00, New:     0.20
Baseline Correction Changed: 1/24/2020 3:25:08 PM, Old:0, New:1
End Method Modifications
<Current Wavelength> , 365.8

Pyranine in d_H2O1,
Pyranine in d_H2O1
Collection Time: 1/24/2020 3:35:32 PM
Operator Name  : CameronSlaten
Scan Version 5.1.0.1016
Parameter List :
Instrument  Cary 60
Instrument Version  2.00
Start (nm)  550.0
Stop (nm)  300.0
X Mode  Nanometers
Y Mode  Abs
UV-Vis Scan Rate (nm/min)  60.000
UV-Vis Data Interval (nm)  0.20
UV-Vis Ave. Time (sec)  0.2000
Beam Mode  Dual Beam
Baseline Correction  On
Baseline Type  Baseline correction
Baseline File Name
Baseline Std Ref File Name
Cycle Mode  Off
Method Log     :
Method Name    :
Date/Time stamp: 1/24/2020 3:24:17 PM
Method Modifications:
UVVIS SAT Changed: 1/24/2020 3:24:49 PM, Old:0.0125, New:0.2000
Common SAT Changed: 1/24/2020 3:24:49 PM, Old:0.0125, New:0.2000
Comment Changed: 1/24/2020 3:25:08 PM, Old:, New:Pyranine in water, natural pH
Operator Changed: 1/24/2020 3:25:08 PM, Old:, New:CameronSlaten
X Start nm Changed: 1/24/2020 3:25:08 PM, Old:  800.0, New:  550.0
X Stop nm Changed: 1/24/2020 3:25:08 PM, Old:  200.0, New:  300.0
Common Interval nm Changed: 1/24/2020 3:25:08 PM, Old:     5.00, New:     0.20
Baseline Correction Changed: 1/24/2020 3:25:08 PM, Old:0, New:1
End Method Modifications
<Current Wavelength> , 300.6

