Pyranine in acetonitrile 1st run,,Pyranine in acetonitrile 2nd run 5 min sonication,,
Wavelength (nm),Abs,Wavelength (nm),Abs,
550.0012207,0.01420383435,550.0012207,0.03123267367,
549.8133545,0.01430443954,549.8133545,0.03158185259,
549.5878296,0.01435786858,549.5878296,0.03176256269,
549.3999634,0.01454434451,549.3999634,0.03167837858,
549.2119751,0.0148323793,549.2119751,0.03131752089,
548.9864502,0.01499269158,548.9864502,0.03162959591,
548.7984619,0.01513531897,548.7984619,0.03173663467,
548.6104736,0.01545209717,548.6104736,0.0310589131,
548.3849487,0.01572774351,548.3849487,0.03094356507,
548.1968994,0.01608070731,548.1968994,0.03068029135,
548.0089722,0.01618212461,548.0089722,0.03097539581,
547.7833862,0.01640201919,547.7833862,0.03124254942,
547.5953369,0.01635516621,547.5953369,0.03176921606,
547.4073486,0.01625835709,547.4073486,0.0314220041,
547.1817017,0.01609583013,547.1817017,0.03066987358,
546.9936523,0.01605169661,546.9936523,0.0305685699,
546.805603,0.01587386057,546.805603,0.03081274219,
546.6175537,0.01579922624,546.6175537,0.03098734841,
546.3918457,0.01556522679,546.3918457,0.03131918982,
546.2037964,0.01538818143,546.2037964,0.0314793624,
546.015686,0.0151912095,546.015686,0.03133268282,
545.789978,0.01508024056,545.789978,0.03131376579,
545.6018677,0.01500539295,545.6018677,0.0315133743,
545.4138184,0.01490923297,545.4138184,0.03126104549,
545.1880493,0.01494269539,545.1880493,0.03068262339,
544.999939,0.01485110261,544.999939,0.03032736853,
544.8118286,0.01491092052,544.8118286,0.03115421161,
544.5860596,0.01481317449,544.5860596,0.03136635199,
544.3978271,0.01481839735,544.3978271,0.03122521937,
544.2097168,0.01480353251,544.2097168,0.03076525219,
543.9838867,0.01478853356,543.9838867,0.03113438189,
543.7957764,0.01471258514,543.7957764,0.03165888786,
543.607605,0.01460026577,543.607605,0.03172691539,
543.3817139,0.01452386845,543.3817139,0.03210491687,
543.1934814,0.0146163553,543.1934814,0.03217044845,
543.0053101,0.01467456203,543.0053101,0.03229075298,
542.8171387,0.01473044604,542.8171387,0.03160843626,
542.5911865,0.01480133552,542.5911865,0.0311209783,
542.4029541,0.01492967457,542.4029541,0.03112061694,
542.2147217,0.01498492155,542.2147217,0.03094798513,
541.9888306,0.01496579032,541.9888306,0.03150257468,
541.8005371,0.01486677304,541.8005371,0.03265077248,
541.6123047,0.01482327189,541.6123047,0.03285538033,
541.3863525,0.01463841647,541.3863525,0.03238958493,
541.1980591,0.01449204423,541.1980591,0.03207947314,
541.0097656,0.01436538715,541.0097656,0.03185196966,
540.7837524,0.01432814356,540.7837524,0.03173409775,
540.595459,0.01414307021,540.595459,0.0317228213,
540.4071655,0.0141087072,540.4071655,0.03234635666,
540.1810913,0.01411793288,540.1810913,0.03289807215,
539.9928589,0.01418519206,539.9928589,0.0326404199,
539.8044434,0.01428793371,539.8044434,0.03217452019,
539.6160889,0.01444496866,539.6160889,0.03185077012,
539.3900146,0.01456230599,539.3900146,0.03163107112,
539.2017212,0.01464486867,539.2017212,0.0314348042,
539.0133057,0.01468532532,539.0133057,0.03112070076,
538.7872314,0.01472974941,538.7872314,0.03095535189,
538.5988159,0.0148229776,538.5988159,0.03156105801,
538.4104004,0.01494092681,538.4104004,0.03206486627,
538.1843262,0.01487491652,538.1843262,0.03196766973,
537.9958496,0.01487459429,537.9958496,0.03160362318,
537.8074341,0.01477929391,537.8074341,0.03151003271,
537.5812988,0.01457823347,537.5812988,0.03126775101,
537.3928223,0.01445596758,537.3928223,0.03069898672,
537.2044067,0.01425561868,537.2044067,0.03063462116,
537.0159302,0.01400804054,537.0159302,0.03097522818,
536.7897339,0.01378144417,536.7897339,0.03111018799,
536.6012573,0.01378574595,536.6012573,0.03105632775,
536.4127197,0.01367144939,536.4127197,0.03123495542,
536.1865234,0.01380856615,536.1865234,0.03183717653,
535.9980469,0.01375704911,535.9980469,0.03204312921,
535.8095093,0.01370633859,535.8095093,0.03180759773,
535.583252,0.0137157701,535.583252,0.03131952509,
535.3947754,0.01364609879,535.3947754,0.0312358737,
535.2061768,0.01366191264,535.2061768,0.03141126409,
535.0176392,0.01367708575,535.0176392,0.03110332042,
534.7913208,0.0138982283,534.7913208,0.03077406064,
534.6027832,0.01396983862,534.6027832,0.03071812913,
534.4141846,0.01412841585,534.4141846,0.03053632565,
534.1879272,0.01415432896,534.1879272,0.03025958687,
533.9993286,0.01414462179,533.9993286,0.03039376996,
533.8106689,0.01409809105,533.8106689,0.03117498755,
533.5843506,0.01394139603,533.5843506,0.03161266819,
533.395752,0.01387142111,533.395752,0.03170313314,
533.2070923,0.01373457815,533.2070923,0.03161322698,
532.9807739,0.01377040893,532.9807739,0.03198162839,
532.7920532,0.01387363952,532.7920532,0.03188592568,
532.6033936,0.01384643372,532.6033936,0.03197680786,
532.4147339,0.01384694129,532.4147339,0.03194016963,
532.1883545,0.01386412513,532.1883545,0.03189849108,
531.9995728,0.01392324641,531.9995728,0.03150649741,
531.8109741,0.01393158641,531.8109741,0.03103389032,
531.5845337,0.01411916316,531.5845337,0.03070340492,
531.395752,0.01419819053,531.395752,0.03090887517,
531.2070923,0.0142259011,531.2070923,0.03124227002,
530.9805908,0.01429298986,530.9805908,0.0319574438,
530.7918701,0.01425663568,530.7918701,0.03225341812,
530.6031494,0.01430542953,530.6031494,0.03207526356,
530.4143677,0.01432501338,530.4143677,0.0315734148,
530.1879272,0.01421046723,530.1879272,0.03118324652,
529.9990845,0.01427207049,529.9990845,0.03039637953,
529.8103027,0.01421902701,529.8103027,0.0301737804,
529.5837402,0.01412614249,529.5837402,0.03021121584,
529.3950195,0.0140814865,529.3950195,0.03038874641,
529.2062378,0.01388555951,529.2062378,0.03066473268,
529.017395,0.01356409956,529.017395,0.03134670854,
528.7908325,0.01337185036,528.7908325,0.03212392703,
528.6019287,0.01327493042,528.6019287,0.03227318823,
528.4130859,0.01324277092,528.4130859,0.03205789998,
528.1865234,0.01326548215,528.1865234,0.03161080554,
527.9976807,0.01336357463,527.9976807,0.03146416694,
527.8088379,0.0135803381,527.8088379,0.03179013357,
527.5821533,0.01377703529,527.5821533,0.03215679154,
527.3932495,0.01400370896,527.3932495,0.03196566552,
527.2043457,0.01420977246,527.2043457,0.03170444071,
527.0155029,0.01453548484,527.0155029,0.0312522836,
526.7888184,0.01464264654,526.7888184,0.03080560081,
526.5998535,0.01479962189,526.5998535,0.03074168973,
526.4110107,0.01502945647,526.4110107,0.03101470508,
526.1842041,0.01500582136,526.1842041,0.03140928596,
525.9953613,0.01476400159,525.9953613,0.03173652291,
525.8063354,0.0147414254,525.8063354,0.03161584213,
525.5796509,0.01463852357,525.5796509,0.0315736942,
525.390625,0.01450154558,525.390625,0.03164326772,
525.2017212,0.01449830737,525.2017212,0.031865675,
525.0127563,0.01438799687,525.0127563,0.03193735704,
524.7859497,0.01430331636,524.7859497,0.03179804236,
524.5969238,0.01413004659,524.5969238,0.0317324549,
524.407959,0.01403710153,524.407959,0.03157057613,
524.1811523,0.01393206697,524.1811523,0.0313718617,
523.9920654,0.01386914961,523.9920654,0.03136434779,
523.8031006,0.01391472016,523.8031006,0.0313237533,
523.6140137,0.01397721656,523.6140137,0.03146441653,
523.387146,0.01407252904,523.387146,0.03143650293,
523.1981201,0.01416668482,523.1981201,0.03111252561,
523.0090332,0.01415141392,523.0090332,0.03114509024,
522.7821655,0.01427993551,522.7821655,0.03094578907,
522.5930786,0.01433394942,522.5930786,0.03078442626,
522.4039917,0.01444411185,522.4039917,0.03057934716,
522.2149048,0.01448243577,522.2149048,0.03036598116,
521.9879761,0.01459857915,521.9879761,0.03059912287,
521.7988892,0.01450855844,521.7988892,0.03059445694,
521.6096802,0.01456934679,521.6096802,0.03052421845,
521.3828125,0.01442497782,521.3828125,0.03041642532,
521.1936035,0.01442687772,521.1936035,0.03053402156,
521.0045166,0.01436519995,521.0045166,0.03061862104,
520.8153076,0.01431685314,520.8153076,0.03080254234,
520.5883789,0.01428330597,520.5883789,0.03096969612,
520.399231,0.01418516599,520.399231,0.03114917874,
520.2099609,0.01415692363,520.2099609,0.03122085147,
519.9829712,0.01416847669,519.9829712,0.03112342581,
519.7937622,0.01413908601,519.7937622,0.03110017814,
519.6045532,0.01412694529,519.6045532,0.03103208169,
519.4153442,0.01410686225,519.4153442,0.03098612651,
519.1882935,0.0139788473,519.1882935,0.03091643564,
518.9990845,0.01392543875,518.9990845,0.03111327626,
518.8098755,0.01395663247,518.8098755,0.03151262179,
518.5827637,0.01387596503,518.5827637,0.0316946134,
518.3934937,0.01380624156,518.3934937,0.03146360815,
518.2042236,0.01380308811,518.2042236,0.03129557148,
518.0149536,0.01374652144,518.0149536,0.03108783066,
517.7878418,0.01371125504,517.7878418,0.03101918101,
517.5985718,0.01367273182,517.5985718,0.03082369082,
517.4092407,0.01366869733,517.4092407,0.03082043864,
517.1821289,0.01385926083,517.1821289,0.03133543953,
516.9927368,0.0139319608,516.9927368,0.03139740601,
516.8034668,0.01397010591,516.8034668,0.03126964346,
516.6141357,0.01413994189,516.6141357,0.03142222762,
516.3869629,0.01412215829,516.3869629,0.03161197528,
516.1975708,0.01395914517,516.1975708,0.03168868273,
516.0082397,0.0138468612,516.0082397,0.03160793707,
515.7810059,0.01398007665,515.7810059,0.03150079399,
515.5916748,0.01404252928,515.5916748,0.03128549829,
515.4022217,0.01403873228,515.4022217,0.03111458197,
515.2128906,0.01400999166,515.2128906,0.03129328787,
514.9855957,0.01412504632,514.9855957,0.0318377614,
514.7962646,0.01420752518,514.7962646,0.03276258335,
514.6068726,0.01417660713,514.6068726,0.03352760524,
514.3795166,0.01419198606,514.3795166,0.03358795494,
514.1900635,0.01403400023,514.1900635,0.03321665153,
514.0006104,0.01400787942,514.0006104,0.03262144327,
513.8112183,0.01392303221,513.8112183,0.03195766732,
513.5838623,0.01393121202,513.5838623,0.03145506606,
513.3944092,0.01390512474,513.3944092,0.03165343031,
513.204895,0.01379218604,513.204895,0.03136281669,
513.0155029,0.01378558576,513.0155029,0.03141393512,
512.7880859,0.01373268198,512.7880859,0.03178027272,
512.5985718,0.01375167817,512.5985718,0.03184603527,
512.4090576,0.01391159277,512.4090576,0.03175768629,
512.1817017,0.01377791725,512.1817017,0.03148278594,
511.9921265,0.01381073054,511.9921265,0.03142136335,
511.8026733,0.01386083849,511.8026733,0.03149208054,
511.6130981,0.01403175388,511.6130981,0.03161963075,
511.3857117,0.01402929425,511.3857117,0.03164179251,
511.1960754,0.01409878675,511.1960754,0.03189425543,
511.0065613,0.01400082186,511.0065613,0.03178787604,
510.7790833,0.01404164638,510.7790833,0.03152553737,
510.5895081,0.0141675137,510.5895081,0.03140898049,
510.3998718,0.01401475072,510.3998718,0.03121807054,
510.2103271,0.01417066995,510.2103271,0.03116057999,
509.9828186,0.01412630267,509.9828186,0.03113830462,
509.7932129,0.01413702685,509.7932129,0.03102393635,
509.6036377,0.01403924078,509.6036377,0.0309316963,
509.414032,0.01417112444,509.414032,0.03075711057,
509.1864319,0.01405677944,509.1864319,0.03081452101,
508.9968262,0.01397416927,508.9968262,0.0309634693,
508.8071594,0.01400897559,508.8071594,0.03110676818,
508.5795593,0.01402049884,508.5795593,0.03120997734,
508.3898926,0.01407268923,508.3898926,0.03131435066,
508.2002258,0.01400435064,508.2002258,0.0311866682,
508.0106201,0.01409670059,508.0106201,0.03154393658,
507.7829285,0.01411480457,507.7829285,0.03190746158,
507.5932617,0.01412526052,507.5932617,0.03198603168,
507.4035034,0.01406381186,507.4035034,0.03205673024,
507.2138367,0.0139786331,507.2138367,0.03208969906,
506.986145,0.01409670059,506.986145,0.03191192076,
506.7964478,0.01398066524,506.7964478,0.03158995137,
506.60672,0.0140186809,506.60672,0.03154605255,
506.3790283,0.01406627148,506.3790283,0.03173649311,
506.18927,0.01399681158,506.18927,0.03180475533,
505.9995117,0.01411723811,505.9995117,0.03201445565,
505.8097839,0.01411763858,505.8097839,0.03211205453,
505.5820007,0.01405290328,505.5820007,0.03223906085,
505.3922424,0.01393035613,505.3922424,0.03229482472,
505.2024841,0.01405538991,505.2024841,0.03211550787,
505.0126648,0.01392642688,505.0126648,0.03180428222,
504.7848816,0.01401381474,504.7848816,0.03220646828,
504.5950928,0.01373847947,504.5950928,0.03237552941,
504.4052734,0.01388999633,504.4052734,0.03253667429,
504.2154541,0.01386965718,504.2154541,0.03258553147,
503.9876404,0.01393065043,503.9876404,0.03265663236,
503.797821,0.01383897755,503.797821,0.03257908672,
503.6079102,0.01380479801,503.6079102,0.03245479614,
503.380127,0.01377374865,503.380127,0.03233043477,
503.1901855,0.01384432241,503.1901855,0.03252177685,
503.0003662,0.01373449806,503.0003662,0.03270117566,
502.8104553,0.01376094949,502.8104553,0.03271323442,
502.5825806,0.01392554492,502.5825806,0.03254234046,
502.3926697,0.01393506117,502.3926697,0.03236256167,
502.2027588,0.01390207745,502.2027588,0.03228715435,
502.0128784,0.01380602736,502.0128784,0.03229295462,
501.7849121,0.01383253653,501.7849121,0.0321180746,
501.5950012,0.01372303627,501.5950012,0.03162188455,
501.4050903,0.01388211176,501.4050903,0.03152158484,
501.2151489,0.01389363129,501.2151489,0.03126992285,
500.9871826,0.01400084887,500.9871826,0.03143689409,
500.7972107,0.01402745023,500.7972107,0.03167183325,
500.6072083,0.01399347,500.6072083,0.03177055344,
500.3792725,0.01411207672,500.3792725,0.03192601725,
500.18927,0.01407752838,500.18927,0.0321286954,
499.9993286,0.01413210575,499.9993286,0.03239826113,
499.8092651,0.01417938899,499.8092651,0.03232739493,
499.5812988,0.01417085715,499.5812988,0.03225879744,
499.3911743,0.01420875546,499.3911743,0.03203624859,
499.2012329,0.01422675699,499.2012329,0.03187255561,
499.0111694,0.01421680674,499.0111694,0.03196368366,
498.7831116,0.01430502813,498.7831116,0.03224014491,
498.5930481,0.01433964819,498.5930481,0.03223944828,
498.4029846,0.01439599786,498.4029846,0.03228748962,
498.2129211,0.01442446932,498.2129211,0.03230943531,
497.9848328,0.01456498355,497.9848328,0.03219534457,
497.7947693,0.0145044094,497.7947693,0.03179386631,
497.6046753,0.01455154549,497.6046753,0.03157168999,
497.4145508,0.01457721647,497.4145508,0.03128917143,
497.1864319,0.014587068,497.1864319,0.03134612367,
496.9963379,0.01450478379,496.9963379,0.03142982349,
496.8061829,0.01445800159,496.8061829,0.03142843395,
496.578064,0.01418305282,496.578064,0.03145158663,
496.3879089,0.01415791269,496.3879089,0.03151248395,
496.1977539,0.0141168898,496.1977539,0.03164933622,
496.0075684,0.01406549662,496.0075684,0.031191146,
495.7794495,0.01401376165,495.7794495,0.03099393845,
495.5892029,0.01394257229,495.5892029,0.03086557239,
495.3990784,0.01392885949,495.3990784,0.0308068227,
495.2088928,0.01393452659,495.2088928,0.03081577085,
494.9806213,0.01390883978,494.9806213,0.0308578182,
494.7904358,0.01402322575,494.7904358,0.03109325469,
494.6002197,0.01416885108,494.6002197,0.03126391396,
494.4100342,0.01429298986,494.4100342,0.03134926781,
494.1817017,0.0143539086,494.1817017,0.03113783151,
493.9915161,0.01453197841,493.9915161,0.03092321754,
493.8012695,0.0146631822,493.8012695,0.03058984503,
493.6110229,0.01473068725,493.6110229,0.03040076606,
493.3827515,0.01495156344,493.3827515,0.03031379357,
493.1924438,0.01491965447,493.1924438,0.03042164445,
493.0021667,0.01490888465,493.0021667,0.03061695583,
492.8119202,0.01493870281,492.8119202,0.0309601333,
492.5835571,0.01490706299,492.5835571,0.0313442871,
492.3933105,0.01470489986,492.3933105,0.03171404824,
492.2029114,0.01452456415,492.2029114,0.03210193664,
492.0126648,0.01439198386,492.0126648,0.03238727152,
491.7842407,0.01424478553,491.7842407,0.03244946897,
491.5939331,0.01407303661,491.5939331,0.03229596838,
491.403595,0.01397483703,491.403595,0.03208145127,
491.2132568,0.01398855075,491.2132568,0.03197042644,
490.9848328,0.01395235583,490.9848328,0.03166264668,
490.7944641,0.01401603408,490.7944641,0.03149158135,
490.6041565,0.01394185051,490.6041565,0.03128619492,
490.4137573,0.01391557511,490.4137573,0.03107520752,
490.1853027,0.01402517688,490.1853027,0.03068954125,
489.9949036,0.01406910643,489.9949036,0.03046612628,
489.8045044,0.01422734559,489.8045044,0.03050916642,
489.6140747,0.01418251824,489.6140747,0.03046351485,
489.3856201,0.01426693425,489.3856201,0.03055598959,
489.1951599,0.01411822718,489.1951599,0.03054251894,
489.0047607,0.01400734484,489.0047607,0.03062189929,
488.81427,0.01391784754,488.81427,0.03098304011,
488.5858154,0.01378636062,488.5858154,0.03102474287,
488.3953247,0.01374152489,488.3953247,0.03077164292,
488.204895,0.01366947219,488.204895,0.03052477352,
488.0144348,0.01360787544,488.0144348,0.03055018559,
487.7858582,0.01350024715,487.7858582,0.03048159182,
487.5953674,0.01350003388,487.5953674,0.03056162782,
487.4048767,0.01349285059,487.4048767,0.03071201779,
487.2144165,0.01352238469,487.2144165,0.03092549741,
486.9857788,0.01357793435,486.9857788,0.03081460297,
486.7952881,0.0136795966,486.7952881,0.03071054444,
486.6047974,0.01386404503,486.6047974,0.03063914925,
486.4142456,0.01392827183,486.4142456,0.03079573438,
486.1856079,0.01396286115,486.1856079,0.03083033301,
485.9950562,0.0139781516,485.9950562,0.03094231524,
485.8044739,0.01411801297,485.8044739,0.03117331862,
485.6139832,0.01413384452,485.6139832,0.03114136308,
485.3852234,0.01430371776,485.3852234,0.03104932047,
485.1946716,0.01443541422,485.1946716,0.03093147464,
485.0040588,0.01443675254,485.0040588,0.03087377176,
484.8135071,0.01439787075,484.8135071,0.03086815774,
484.5847473,0.0142399976,484.5847473,0.03103447333,
484.3942261,0.01400010008,484.3942261,0.03144557402,
484.2036438,0.01380252745,484.2036438,0.0317581892,
484.0129395,0.01360875648,484.0129395,0.0318467319,
483.7842102,0.01350291818,483.7842102,0.03193161637,
483.5935669,0.01341112144,483.5935669,0.03178562224,
483.4029846,0.01345140953,483.4029846,0.03171964735,
483.2122803,0.01363840513,483.2122803,0.03160880134,
482.983551,0.01379726268,482.983551,0.0316141434,
482.7928467,0.01390686166,482.7928467,0.03172145784,
482.6021729,0.01402533799,482.6021729,0.03182832152,
482.4114685,0.01399598271,482.4114685,0.031563811,
482.1826477,0.0140118897,482.1826477,0.03150485829,
481.9919434,0.01402549818,481.9919434,0.03135093674,
481.8012695,0.01407525595,481.8012695,0.03132230788,
481.6105347,0.01409498975,481.6105347,0.03105563298,
481.3816833,0.01424277946,481.3816833,0.03086882457,
481.190918,0.01413699985,481.190918,0.03068604134,
481.0002136,0.01430064067,481.0002136,0.03077247739,
480.8095398,0.01444320194,480.8095398,0.03106733784,
480.5805969,0.01447665505,480.5805969,0.03150736168,
480.3898621,0.01453607343,480.3898621,0.03196307272,
480.1990356,0.01445888449,480.1990356,0.03214034438,
480.0083008,0.01442588773,480.0083008,0.03218321875,
479.7793579,0.01444033906,479.7793579,0.03216835856,
479.588562,0.01434898563,479.588562,0.03192955628,
479.3977966,0.01425050944,479.3977966,0.03168049455,
479.2069702,0.01425952464,479.2069702,0.03157959506,
478.9780273,0.01414732262,478.9780273,0.03145002946,
478.7871704,0.01410378702,478.7871704,0.03135636076,
478.596344,0.01412437763,478.596344,0.03124076873,
478.4055786,0.01414216124,478.4055786,0.03109239228,
478.2146912,0.01407704782,478.2146912,0.03081782721,
477.9856873,0.01413903199,477.9856873,0.03061098233,
477.7948303,0.01408282295,477.7948303,0.03072515875,
477.6039429,0.01399528794,477.6039429,0.03092041053,
477.4131165,0.01393102482,477.4131165,0.03133045882,
477.184021,0.01386786718,477.184021,0.03160612658,
476.9931946,0.01370660588,476.9931946,0.03193724528,
476.8022766,0.01375002135,476.8022766,0.03223301098,
476.6113892,0.01368114632,476.6113892,0.03242107481,
476.3822632,0.01360539068,476.3822632,0.03245713934,
476.1913757,0.01372309029,476.1913757,0.03248963878,
476.0004272,0.01381476596,476.0004272,0.03235793114,
475.8095093,0.01391744614,475.8095093,0.03260308132,
475.5803833,0.01388764475,475.5803833,0.03275850788,
475.3894348,0.01409849245,475.3894348,0.03250989318,
475.1984863,0.01413812302,475.1984863,0.03229833767,
475.0075378,0.01412293315,475.0075378,0.03220735863,
474.7783508,0.0141843101,474.7783508,0.03209697455,
474.5874329,0.0141780246,474.5874329,0.03202724457,
474.3963928,0.01409894694,474.3963928,0.03183232993,
474.2054443,0.01401822641,474.2054443,0.03170775622,
473.9762878,0.01400255971,473.9762878,0.0315429084,
473.7852173,0.01407547016,473.7852173,0.03159301355,
473.5942383,0.01416585594,473.5942383,0.03164802864,
473.4031677,0.01426342968,473.4031677,0.03158527613,
473.2121887,0.01428186148,473.2121887,0.03149575368,
472.9829102,0.01427354198,472.9829102,0.03160643205,
472.7919006,0.01432338171,472.7919006,0.03157263622,
472.6007996,0.01419211924,472.6007996,0.0317543447,
472.409729,0.01407560334,472.409729,0.03183653578,
472.1805115,0.01412017923,472.1805115,0.03193131089,
471.9894409,0.01401977707,471.9894409,0.03174805269,
471.7983704,0.01403247658,471.7983704,0.03176632151,
471.6072998,0.01405744813,471.6072998,0.03168661892,
471.3778992,0.01406087074,471.3778992,0.03147143126,
471.1868896,0.01420027763,471.1868896,0.03149583936,
470.9957581,0.01404883899,470.9957581,0.03139347956,
470.8045959,0.01400103606,470.8045959,0.03152754158,
470.6135254,0.01391835511,470.6135254,0.03163909167,
470.3841553,0.01396117732,470.3841553,0.03184068576,
470.1930237,0.01383833587,470.1930237,0.03187492117,
470.0018616,0.01389178727,470.0018616,0.03191155568,
469.81073,0.0138492398,469.81073,0.03200433776,
469.5812988,0.01380629465,469.5812988,0.03207378462,
469.3901367,0.013851244,469.3901367,0.03205834702,
469.1990051,0.0139670847,469.1990051,0.03191334009,
469.007782,0.01406926662,469.007782,0.03186213598,
468.7783508,0.01409330498,468.7783508,0.03191055357,
468.5871582,0.01409769058,468.5871582,0.03200470284,
468.3959656,0.01419757586,468.3959656,0.03200241551,
468.2047424,0.01413702685,468.2047424,0.03181361407,
468.0135193,0.01421616506,468.0135193,0.03174908087,
467.7840576,0.0142004909,467.7840576,0.03178776428,
467.5928345,0.01411646232,467.5928345,0.03176504001,
467.4015808,0.01420789957,467.4015808,0.03198199347,
467.2103577,0.0141580468,467.2103577,0.03209878504,
466.980835,0.01407873165,466.980835,0.03218943626,
466.7895508,0.01407151297,466.7895508,0.0323465541,
466.5982971,0.01399967261,466.5982971,0.03238001838,
466.4070129,0.01401325315,466.4070129,0.03224207088,
466.1774597,0.01395369228,466.1774597,0.03223632649,
465.9861755,0.01380413026,465.9861755,0.03213844821,
465.7949219,0.01392084081,465.7949219,0.03215606511,
465.6035461,0.01378408913,465.6035461,0.03213398904,
465.4122925,0.01364759449,465.4122925,0.03213861585,
465.1826782,0.01355493907,465.1826782,0.03230745718,
464.9913635,0.01349034067,464.9913635,0.03236049786,
464.7999878,0.01356556825,464.7999878,0.03237686679,
464.6086731,0.01356709097,464.6086731,0.03231869265,
464.3790588,0.01354925055,464.3790588,0.03236512467,
464.1876831,0.01361743733,464.1876831,0.03226934001,
463.9962769,0.01365643647,463.9962769,0.03250082582,
463.8049622,0.01364927739,463.8049622,0.0326830633,
463.6135559,0.01357780118,463.6135559,0.03275272995,
463.3839111,0.01364014205,463.3839111,0.03264028206,
463.1925049,0.01366364863,463.1925049,0.03248938918,
463.0010986,0.01370620541,463.0010986,0.03259044141,
462.8097229,0.01369661465,462.8097229,0.03270645067,
462.5799561,0.01376113668,462.5799561,0.03276819363,
462.3886108,0.01360581815,462.3886108,0.0327892974,
462.1970825,0.01355608739,462.1970825,0.03281911463,
462.0056763,0.01361516677,462.0056763,0.03283290565,
461.7759094,0.013487163,461.7759094,0.03270673007,
461.5845032,0.01353520341,461.5845032,0.03281662986,
461.3930359,0.0135954814,461.3930359,0.03274497017,
461.2015686,0.01353533659,461.2015686,0.03263690323,
461.0101318,0.01362045575,461.0101318,0.03277977929,
460.780304,0.013529649,460.780304,0.03292624652,
460.5888367,0.01352059562,460.5888367,0.03298157081,
460.3973389,0.01346219704,460.3973389,0.03314266354,
460.2058105,0.01338490471,460.2058105,0.03329912201,
459.9760132,0.01326772384,459.9760132,0.0332990922,
459.7844849,0.01323116198,459.7844849,0.03330247477,
459.592926,0.01319313515,459.592926,0.0332474187,
459.4014893,0.01322174165,459.4014893,0.03347967938,
459.2098694,0.01327428967,459.2098694,0.03367804736,
458.980072,0.01334905345,458.980072,0.03394608572,
458.7884521,0.01348684262,458.7884521,0.0341457054,
458.5969543,0.01348710991,458.5969543,0.03432011604,
458.4053955,0.01367038116,458.4053955,0.03442453966,
458.1754761,0.0137101328,458.1754761,0.03451343253,
457.9839172,0.0138205383,457.9839172,0.03454496339,
457.7922668,0.0137727065,457.7922668,0.03439979628,
457.600708,0.01385164447,457.600708,0.0340173021,
457.4090881,0.01390148979,457.4090881,0.03351373598,
457.1791687,0.01397350058,457.1791687,0.03285739198,
456.9875183,0.01391431876,456.9875183,0.03207707405,
456.795929,0.01409025677,456.795929,0.03157686815,
456.604248,0.01410076581,456.604248,0.03126046434,
456.4126587,0.01419690717,456.4126587,0.03133441135,
456.1826477,0.01419147756,456.1826477,0.03132681549,
455.9910278,0.01429697592,455.9910278,0.03162099421,
455.7993469,0.01424031798,455.7993469,0.03171933815,
455.607666,0.01419252064,455.607666,0.03185489401,
455.3776245,0.01418396179,455.3776245,0.03185286,
455.1859741,0.01425010804,455.1859741,0.03179996461,
454.9943237,0.01429595985,454.9943237,0.03157425299,
454.8025513,0.01422290504,454.8025513,0.03140338883,
454.6109009,0.0142474873,454.6109009,0.03163079545,
454.3807983,0.01435920596,454.3807983,0.0318948701,
454.1890869,0.01443161443,454.1890869,0.03208610415,
453.997406,0.0144673679,453.997406,0.03226791695,
453.8056335,0.01440102793,453.8056335,0.03233885393,
453.575531,0.01436704583,453.575531,0.03260389343,
453.3837891,0.01435679849,453.3837891,0.03263704479,
453.1920776,0.01434408966,453.1920776,0.03270098194,
453.0003357,0.01441392582,453.0003357,0.03262102604,
452.8085327,0.01442532614,452.8085327,0.03245951235,
452.5784302,0.01447379123,452.5784302,0.03248732537,
452.3866272,0.0145302657,452.3866272,0.03244930133,
452.1948242,0.01443560235,452.1948242,0.03240559623,
452.0030518,0.01451452728,452.0030518,0.03229789063,
451.8111572,0.01468714606,451.8111572,0.03220172971,
451.5810547,0.01467413362,451.5810547,0.0318331942,
451.3892212,0.01468947623,451.3892212,0.0316494219,
451.1974182,0.01471756585,451.1974182,0.0315515101,
451.0056152,0.01473189238,451.0056152,0.03171424195,
450.7753601,0.01483205799,450.7753601,0.03151292726,
450.5835266,0.01483181678,450.5835266,0.03133263066,
450.3916016,0.01479948778,450.3916016,0.03103892133,
450.1997986,0.01476459019,450.1997986,0.03094932064,
450.0079041,0.01483205799,450.0079041,0.03111666813,
449.77771,0.0148455305,449.77771,0.03136671335,
449.5858154,0.01489784755,449.5858154,0.03153745085,
449.3939209,0.01486521866,449.3939209,0.03148598596,
449.2019653,0.0150968302,449.2019653,0.03169349954,
449.0101318,0.01503746863,449.0101318,0.03187038377,
448.7798157,0.01502007712,448.7798157,0.03193939105,
448.5879211,0.01503417268,448.5879211,0.0319962576,
448.3959656,0.01506893057,448.3959656,0.03199483827,
448.2040405,0.01496841572,448.2040405,0.03200241551,
448.012085,0.0150017757,448.012085,0.03214547411,
447.7817383,0.0150019899,447.7817383,0.03227890283,
447.5897827,0.0149182342,447.5897827,0.03239831328,
447.3978577,0.01491670776,447.3978577,0.03231615573,
447.2059021,0.01492595021,447.2059021,0.03236284107,
446.9754944,0.01484574471,446.9754944,0.03223440424,
446.7835693,0.01469201967,446.7835693,0.03203145415,
446.5915527,0.01467094757,446.5915527,0.03172802925,
446.3995056,0.0147328563,446.3995056,0.0316699408,
446.2075195,0.01471320074,446.2075195,0.03167071939,
445.9771423,0.0146163553,445.9771423,0.03186074272,
445.7851257,0.01465852372,445.7851257,0.03201175109,
445.5930786,0.01464152243,445.5930786,0.03205277398,
445.401062,0.0145858638,445.401062,0.03224435821,
445.2090149,0.01460259501,445.2090149,0.03235048428,
444.9785461,0.0145621188,444.9785461,0.03233882785,
444.7865295,0.01451982651,444.7865295,0.03225570545,
444.5944824,0.01455411501,444.5944824,0.03208220378,
444.4024353,0.01460864488,444.4024353,0.03185611963,
444.2103271,0.01450125128,444.2103271,0.03136404231,
443.9798584,0.01458179392,443.9798584,0.03112484328,
443.7877502,0.0145539809,443.7877502,0.0309133511,
443.5956726,0.014569561,443.5956726,0.030927388,
443.4035339,0.0146022737,443.4035339,0.03091924265,
443.2114258,0.01445478946,443.2114258,0.03089367226,
442.980896,0.01439439226,442.980896,0.03090078756,
442.7887573,0.01444082055,442.7887573,0.03105023876,
442.5966492,0.01436731312,442.5966492,0.03098459728,
442.4045105,0.01437277161,442.4045105,0.03120210581,
442.2123718,0.01434614975,442.2123718,0.03153405339,
441.981842,0.01431166288,441.981842,0.0317806378,
441.7896423,0.01420958526,441.7896423,0.03193838522,
441.5975037,0.01417936198,441.5975037,0.03197463602,
441.405365,0.01404402591,441.405365,0.03214274347,
441.1747131,0.01396080293,441.1747131,0.03223774955,
440.9825439,0.01386011671,440.9825439,0.03236989677,
440.7903442,0.01378716249,440.7903442,0.03238247335,
440.5981445,0.01377730258,440.5981445,0.03232005984,
440.4059753,0.0138308797,440.4059753,0.03226194903,
440.175293,0.01379557978,440.175293,0.03215099126,
439.9830322,0.01374534611,439.9830322,0.03194000199,
439.790863,0.0136622861,439.790863,0.03184397519,
439.5986328,0.01368106622,439.5986328,0.03173869476,
439.4063721,0.01358867064,439.4063721,0.0317943655,
439.1756897,0.01366140507,439.1756897,0.03199567273,
438.9833984,0.01376925968,438.9833984,0.03204009309,
438.7911682,0.01379865222,438.7911682,0.03209811822,
438.598938,0.01382834092,438.598938,0.03212155774,
438.4066467,0.01371467393,438.4066467,0.0319510065,
438.1759033,0.0137745766,438.1759033,0.03193482012,
437.9836426,0.013786708,437.9836426,0.03210806847,
437.7913513,0.01380677614,437.7913513,0.0319785364,
437.5990601,0.01377869211,437.5990601,0.03183626011,
437.4067078,0.01384728868,437.4067078,0.03179247305,
437.1759949,0.01388446428,437.1759949,0.03169472516,
436.9836426,0.0138205383,436.9836426,0.03176846355,
436.7913208,0.01366586611,436.7913208,0.03185071424,
436.598999,0.01361989509,436.598999,0.03173891827,
436.4066162,0.01360712759,436.4066162,0.03182302788,
436.1758118,0.01355910581,436.1758118,0.0318646431,
435.983429,0.01361647528,435.983429,0.0320841819,
435.7910461,0.01357408799,435.7910461,0.03209507838,
435.5987244,0.0137321474,435.5987244,0.03217588738,
435.4063416,0.01371299103,435.4063416,0.03219099715,
435.1755066,0.01368779875,435.1755066,0.03215492517,
434.9831238,0.01373489946,434.9831238,0.03215013072,
434.7906799,0.01389456727,434.7906799,0.03203588352,
434.5983582,0.01388689596,434.5983582,0.03195713833,
434.4059143,0.01391461305,434.4059143,0.03174885735,
434.1750488,0.01391349081,434.1750488,0.03162673116,
433.982605,0.01397382095,433.982605,0.03166108578,
433.7901306,0.01395639218,433.7901306,0.03165752441,
433.5976868,0.0140250437,433.5976868,0.03171129152,
433.405304,0.0140660312,433.405304,0.03181149811,
433.1743469,0.01396577526,433.1743469,0.03177768365,
432.9819031,0.01402779762,432.9819031,0.03200528771,
432.7894287,0.0140589457,432.7894287,0.0321431607,
432.5969543,0.01409867965,432.5969543,0.03207972273,
432.40448,0.01408226136,432.40448,0.03211113438,
432.2119751,0.01403835788,432.2119751,0.03203817084,
431.9810181,0.01410552487,431.9810181,0.03191122413,
431.7884827,0.01405677944,431.7884827,0.0316179581,
431.5959473,0.01405405253,431.5959473,0.03130283207,
431.4034729,0.01401993725,431.4034729,0.03116110899,
431.2109375,0.0140250707,431.2109375,0.03119595908,
430.9799805,0.01397911459,430.9799805,0.0312500596,
430.787384,0.01391017623,430.787384,0.03133605048,
430.5949097,0.01387412101,430.5949097,0.03148100525,
430.4023438,0.01372538786,430.4023438,0.0315085873,
430.2098083,0.01374384947,430.2098083,0.03157547489,
429.9787292,0.0135499984,429.9787292,0.03159721941,
429.7861633,0.01340951957,429.7861633,0.03158151731,
429.5935669,0.01329246536,429.5935669,0.03178951889,
429.401001,0.01322769281,429.401001,0.03180564567,
429.2084351,0.01314025,429.2084351,0.03178277984,
428.9772949,0.01305045001,428.9772949,0.03159048036,
428.784668,0.01299512852,428.784668,0.03143377602,
428.5921021,0.01292255893,428.5921021,0.03133774921,
428.3994751,0.01291645225,428.3994751,0.03126805648,
428.2068481,0.01284128334,428.2068481,0.03122418933,
427.9757385,0.01274245605,427.9757385,0.03115092963,
427.7831116,0.01268298831,427.7831116,0.03115376644,
427.5904236,0.01274570823,427.5904236,0.0312232729,
427.3977966,0.01282158028,427.3977966,0.03143461049,
427.2051697,0.0128897056,427.2051697,0.03152492642,
426.973999,0.01295304112,426.973999,0.03158922866,
426.7813416,0.01305445097,426.7813416,0.03149511665,
426.588623,0.01307091117,426.588623,0.03131749481,
426.3959961,0.01307664625,426.3959961,0.03117768466,
426.2033081,0.0130915856,426.2033081,0.03122090735,
426.0105896,0.01317024045,426.0105896,0.03106119297,
425.7793579,0.01318240818,425.7793579,0.03093642183,
425.5866394,0.01322219521,425.5866394,0.03085592762,
425.3939209,0.01305845287,425.3939209,0.03083844855,
425.2012024,0.01305271778,425.2012024,0.03104531765,
425.0085449,0.01296429615,425.0085449,0.03120897524,
424.7772217,0.0128196869,424.7772217,0.03128349781,
424.5844421,0.01276322175,424.5844421,0.03136824444,
424.3917236,0.01263805386,424.3917236,0.03145517781,
424.1990051,0.01258014608,424.1990051,0.03158555552,
424.0062256,0.01250434294,424.0062256,0.03151042387,
423.7749023,0.01251803711,423.7749023,0.03141343221,
423.5821533,0.01248644013,423.5821533,0.03135399893,
423.3893738,0.01246728562,423.3893738,0.03130277619,
423.1965942,0.01256535761,423.1965942,0.0313487649,
423.0037842,0.01264660899,423.0037842,0.03148292378,
422.8110046,0.01268213522,422.8110046,0.03154755384,
422.5796509,0.01276796684,422.5796509,0.03156526014,
422.3868103,0.01287871972,422.3868103,0.03155654669,
422.1940002,0.01297259051,422.1940002,0.03167517483,
422.0011902,0.01303247083,422.0011902,0.03166840971,
421.8083191,0.01314251777,421.8083191,0.0317867063,
421.5769653,0.01318430249,421.5769653,0.03187756985,
421.3840942,0.01323887426,421.3840942,0.03179241717,
421.1912231,0.0133023141,421.1912231,0.03174768761,
420.9983521,0.0132706333,420.9983521,0.03164468706,
420.805542,0.01341298968,420.805542,0.03150093183,
420.5740662,0.01356460713,420.5740662,0.03143672645,
420.3811951,0.0136133777,420.3811951,0.03120483086,
420.188324,0.0136936754,420.188324,0.03100761585,
419.9954224,0.0137191359,419.9954224,0.03093072399,
419.8024902,0.01380076353,419.8024902,0.0309492927,
419.6096191,0.0138467541,419.6096191,0.0309910737,
419.3781738,0.01382075157,419.3781738,0.03124380112,
419.1852417,0.01389205456,419.1852417,0.03125434369,
418.9922791,0.01385690924,418.9922791,0.03148709983,
418.7993774,0.01397283189,418.7993774,0.03161885217,
418.6064453,0.01387355942,418.6064453,0.0315628387,
418.3749084,0.01388580073,418.3749084,0.03159593791,
418.1819458,0.01378673501,418.1819458,0.0315817669,
417.9890137,0.0136779137,417.9890137,0.03150939196,
417.796051,0.01363284979,417.796051,0.03146569803,
417.6030884,0.01358089875,417.6030884,0.03143527731,
417.4100647,0.01347642858,417.4100647,0.0312618278,
417.1785278,0.01347904559,417.1785278,0.03119042329,
416.9855652,0.01352310646,416.9855652,0.03109689616,
416.7925415,0.01357657183,416.7925415,0.03105310164,
416.5995789,0.01347856503,416.5995789,0.03102007136,
416.4065552,0.01343894098,416.4065552,0.03093808889,
416.1749573,0.01351739094,416.1749573,0.03102279641,
415.9819031,0.01357782725,415.9819031,0.0310578011,
415.7888794,0.01364775468,415.7888794,0.03089508973,
415.5958557,0.01377211884,415.5958557,0.03063837066,
415.4028015,0.01367550995,415.4028015,0.03052244149,
415.2097778,0.0137645565,415.2097778,0.03052146919,
414.9781494,0.01376140397,414.9781494,0.03046035022,
414.7850647,0.01372621581,414.7850647,0.03052602336,
414.5919495,0.01368047856,414.5919495,0.03050694428,
414.3989563,0.01361594163,414.3989563,0.03064456582,
414.2058411,0.01360154524,414.2058411,0.03081604838,
413.9741211,0.01356647629,413.9741211,0.03097639605,
413.7810669,0.01359972823,413.7810669,0.0310565494,
413.5879517,0.01359200943,413.5879517,0.03097586706,
413.3948669,0.01365173515,413.3948669,0.03105641156,
413.2016907,0.01358332951,413.2016907,0.0309356153,
413.0086365,0.01366025675,413.0086365,0.0309917964,
412.776825,0.01368795894,412.776825,0.03110243008,
412.5837708,0.01375445724,412.5837708,0.03124318831,
412.390625,0.01391667128,412.390625,0.03140920401,
412.1974487,0.01385837886,412.1974487,0.03151927516,
412.0043335,0.01387727447,412.0043335,0.03144774586,
411.7725525,0.01386415213,411.7725525,0.03155128658,
411.5793762,0.01389135979,411.5793762,0.03167114034,
411.3862305,0.01388195157,411.3862305,0.03174401447,
411.1930237,0.01378740277,411.1930237,0.0318316333,
410.9998474,0.01379544567,410.9998474,0.0318736136,
410.8067017,0.013652483,410.8067017,0.03180002049,
410.5747986,0.01371189579,410.5747986,0.03192924708,
410.3815918,0.01359841973,410.3815918,0.03196488321,
410.188446,0.0136887338,410.188446,0.03204312921,
409.9952393,0.0137453191,409.9952393,0.03233210742,
409.8019714,0.01378478389,409.8019714,0.03254476562,
409.6087646,0.01386417914,409.6087646,0.0329268612,
409.3768616,0.01383186877,409.3768616,0.03334750235,
409.1836243,0.01410194207,409.1836243,0.03373556584,
408.9903564,0.01420033071,408.9903564,0.03394493833,
408.7971497,0.01424828917,408.7971497,0.03408729285,
408.6038818,0.01441943832,408.6038818,0.03425311297,
408.4106445,0.01457213052,408.4106445,0.03449415043,
408.1786804,0.01495059859,408.1786804,0.03488141671,
407.9854736,0.01519632991,407.9854736,0.03513995185,
407.7921753,0.01539306249,407.7921753,0.0352410078,
407.598877,0.015509611,407.598877,0.03518823162,
407.4055786,0.01576870494,407.4055786,0.0351087451,
407.1736145,0.01607154682,407.1736145,0.03522525728,
406.9802856,0.01626574807,406.9802856,0.03519061953,
406.7869568,0.01655774936,406.7869568,0.03533194959,
406.593689,0.0167929288,406.593689,0.03540535644,
406.4003296,0.01701221801,406.4003296,0.03563526273,
406.2070007,0.01733723842,406.2070007,0.03584201261,
405.9750061,0.01768620126,405.9750061,0.03628355265,
405.7816467,0.01804505102,405.7816467,0.03673844784,
405.5882874,0.0184795782,405.5882874,0.03729659319,
405.3948975,0.01875383034,405.3948975,0.03786675259,
405.2015686,0.01891035214,405.2015686,0.03830473125,
405.0082092,0.01920638233,405.0082092,0.03874094784,
404.7761536,0.01966677606,404.7761536,0.03952449188,
404.5827637,0.02007785253,404.5827637,0.04011635482,
404.3893738,0.02075224183,404.3893738,0.04096721485,
404.1960144,0.02131817862,404.1960144,0.04168745503,
404.002594,0.02164162323,404.002594,0.04236548394,
403.8091736,0.02229386754,403.8091736,0.04306666926,
403.5770874,0.02283827029,403.5770874,0.04396495223,
403.383667,0.02321478538,403.383667,0.04479712993,
403.1902161,0.02428105101,403.1902161,0.04630242661,
402.9967651,0.02491802908,402.9967651,0.04743945971,
402.8033447,0.02563908324,402.8033447,0.04830801487,
402.6098938,0.02626744285,402.6098938,0.04918001965,
402.3777466,0.0271511171,402.3777466,0.05035854131,
402.1842957,0.02794887871,402.1842957,0.0511736609,
401.9908142,0.02913133241,401.9908142,0.05249705166,
401.7973633,0.03049811535,401.7973633,0.05385237932,
401.6038818,0.03158371523,401.6038818,0.05486649275,
401.3717041,0.03257244453,401.3717041,0.05631205067,
401.1781921,0.03386844695,401.1781921,0.05741482228,
400.9847107,0.03498852625,400.9847107,0.05864265934,
400.7912292,0.03628572077,400.7912292,0.0601281859,
400.5977173,0.03759137169,400.5977173,0.0616758205,
400.4041748,0.03870206326,400.4041748,0.0628778711,
400.1719666,0.03993225098,400.1719666,0.06441926211,
399.9784241,0.04115403444,399.9784241,0.06582140923,
399.7849121,0.04248162359,399.7849121,0.06736462563,
399.5913696,0.04375784844,399.5913696,0.06880717725,
399.3977966,0.04548219219,399.3977966,0.07068486512,
399.2042847,0.04661560804,399.2042847,0.07208126038,
398.9719849,0.0477790609,398.9719849,0.0734975189,
398.7784424,0.04882949963,398.7784424,0.07489661127,
398.5848694,0.05006798357,398.5848694,0.07636468858,
398.3912659,0.05116271228,398.3912659,0.07773131877,
398.1976929,0.05281820893,398.1976929,0.07967706025,
398.0040894,0.05407968909,398.0040894,0.08112059534,
397.7717896,0.05515781045,397.7717896,0.08250556141,
397.578186,0.05591533333,397.578186,0.08335859329,
397.3845825,0.05673694611,397.3845825,0.08425673097,
397.1909485,0.05729453266,397.1909485,0.08482006937,
396.9973755,0.0582062453,396.9973755,0.08562078327,
396.8037109,0.05872198194,396.8037109,0.08625920862,
396.5713501,0.05924797431,396.5713501,0.08674160391,
396.3777161,0.05956712738,396.3777161,0.08699131757,
396.1840515,0.05960762873,396.1840515,0.08710579574,
395.9904175,0.05975871161,395.9904175,0.08706384897,
395.7967529,0.0597207509,395.7967529,0.08695530146,
395.6030579,0.05943989009,395.6030579,0.08664944023,
395.4094543,0.05907201022,395.4094543,0.08634039015,
395.177002,0.0585571304,395.177002,0.08575142175,
394.9833679,0.05793092027,394.9833679,0.08514435589,
394.7896729,0.05719899386,394.7896729,0.08419155329,
394.5959473,0.05631316826,394.5959473,0.08296139538,
394.4022522,0.05515125766,394.4022522,0.08140712976,
394.2085266,0.05426320434,394.2085266,0.08017675579,
393.9761047,0.05326439813,393.9761047,0.07884112746,
393.7823792,0.05223469064,393.7823792,0.07750654966,
393.588623,0.05126843974,393.588623,0.07610684633,
393.394928,0.04997337982,393.394928,0.07437118143,
393.2012024,0.04834892601,393.2012024,0.07215628773,
393.0074158,0.04708113894,393.0074158,0.07070935518,
392.7749329,0.04586917162,392.7749329,0.06945058703,
392.5811768,0.0449516736,392.5811768,0.06845721602,
392.3874207,0.04393032193,392.3874207,0.06751234829,
392.1936646,0.04302973673,392.1936646,0.06673812121,
391.9998779,0.04163272306,391.9998779,0.06539247185,
391.8061218,0.04035942256,391.8061218,0.06398177892,
391.5735474,0.03922525421,391.5735474,0.06271104515,
391.3797607,0.03846614435,391.3797607,0.06171622127,
391.1859741,0.03766807169,391.1859741,0.06039565802,
390.992157,0.03700325266,390.992157,0.05930488557,
390.7983704,0.03606930748,390.7983704,0.05816395208,
390.6045227,0.03542077541,390.6045227,0.05719243735,
390.3719482,0.03478582948,390.3719482,0.05644760281,
390.1781006,0.03426462412,390.1781006,0.05590178818,
389.9842834,0.03368674964,389.9842834,0.05522882566,
389.7904663,0.03315937147,389.7904663,0.05439177901,
389.5965881,0.03265205771,389.5965881,0.05369250104,
389.4027405,0.03230497241,389.4027405,0.05313939974,
389.2088623,0.03191169724,389.2088623,0.05252010003,
388.9762573,0.03168798611,388.9762573,0.05212046579,
388.7823792,0.03158491477,388.7823792,0.05171221867,
388.588501,0.03144905344,388.588501,0.05151031166,
388.3946228,0.03136696294,388.3946228,0.05137632042,
388.2007446,0.03133702651,388.2007446,0.05125436932,
388.0068359,0.03128900379,388.0068359,0.0514177829,
387.7741394,0.03120296821,387.7741394,0.05162892118,
387.5802612,0.03134949133,387.5802612,0.05192542821,
387.386322,0.03134684637,387.386322,0.05215195939,
387.1924133,0.03136688098,387.1924133,0.05240118876,
386.9984741,0.03174521029,386.9984741,0.0528074801,
386.8045349,0.03198162839,386.8045349,0.0532107316,
386.5718384,0.032250043,386.5718384,0.05352858454,
386.3778992,0.03251776099,386.3778992,0.05394176394,
386.1839294,0.03289927542,386.1839294,0.05427728221,
385.9899902,0.0331152007,385.9899902,0.05437267944,
385.796051,0.03360087797,385.796051,0.05462565273,
385.6020508,0.03408553079,385.6020508,0.05500937998,
385.4081116,0.03449151665,385.4081116,0.05521313101,
385.175293,0.03498709574,385.175293,0.05546785519,
384.9813538,0.03557715565,384.9813538,0.05610309914,
384.787323,0.03593114018,384.787323,0.05647516623,
384.5933228,0.03664563224,384.5933228,0.0573088862,
384.399353,0.03703504801,384.399353,0.05814193562,
384.2053528,0.03735907748,384.2053528,0.05865255743,
383.9725342,0.03783365339,383.9725342,0.05930903926,
383.7785034,0.03822300211,383.7785034,0.06002928317,
383.5844727,0.03869306296,383.5844727,0.06081322581,
383.3904114,0.03955018148,383.3904114,0.06195293739,
383.1963806,0.04035143927,383.1963806,0.06305275112,
383.0023499,0.04096334428,383.0023499,0.0639019981,
382.8083191,0.04144535214,382.8083191,0.06447093934,
382.5754089,0.04222832248,382.5754089,0.06534017622,
382.3813782,0.04271185026,382.3813782,0.06623400748,
382.1873169,0.04351682216,382.1873169,0.06721296161,
381.9932251,0.04432830587,381.9932251,0.06819815189,
381.7991333,0.04495190084,381.7991333,0.06887305528,
381.605072,0.04557792097,381.605072,0.06966687739,
381.3721619,0.04603629559,381.3721619,0.07034727186,
381.1780396,0.0467068553,381.1780396,0.07115647942,
380.9839478,0.04731474444,380.9839478,0.07182937115,
380.7898254,0.04792350903,380.7898254,0.0726191625,
380.5957336,0.04850511253,380.5957336,0.0733172521,
380.4016113,0.04897884652,380.4016113,0.07393595576,
380.207489,0.04949676245,380.207489,0.07456451654,
379.9745178,0.05018436909,379.9745178,0.07536820322,
379.780365,0.05060578138,379.780365,0.07598719001,
379.5862427,0.05110930651,379.5862427,0.07659229636,
379.3920898,0.05159895122,379.3920898,0.07710555196,
379.197937,0.05199903995,379.197937,0.07753068954,
379.0037842,0.05221927539,379.0037842,0.077772066,
378.7707214,0.0526573956,378.7707214,0.07825250179,
378.5765991,0.05294431373,378.5765991,0.07860659808,
378.3824158,0.05328737199,378.3824158,0.07910376042,
378.1882019,0.05353546515,378.1882019,0.07942246646,
377.9940186,0.05352805555,377.9940186,0.07966794819,
377.7998352,0.05373506621,377.7998352,0.07994733006,
377.6056213,0.05376228318,377.6056213,0.08004772663,
377.3725586,0.05377300456,377.3725586,0.08004016429,
377.1783752,0.05390571803,377.1783752,0.08004595339,
376.9841614,0.05385671929,376.9841614,0.08000197262,
376.789917,0.0538973622,376.789917,0.07986966521,
376.5956726,0.05380661041,376.5956726,0.07987700403,
376.4014282,0.05372912064,376.4014282,0.07987336814,
376.2072144,0.05370237306,376.2072144,0.07977829874,
375.9740601,0.0534533076,375.9740601,0.07942203432,
375.7798462,0.05315619335,375.7798462,0.07916081697,
375.5855713,0.05289597809,375.5855713,0.07879124582,
375.3912964,0.05272575468,375.3912964,0.07858940959,
375.197052,0.05244993418,375.197052,0.07836357504,
375.0027466,0.05209040642,375.0027466,0.0778644681,
374.8084412,0.05161679164,374.8084412,0.07747235894,
374.5753174,0.0509705767,374.5753174,0.07671681792,
374.381012,0.05061136559,374.381012,0.07633996755,
374.1867371,0.05014070123,374.1867371,0.07586152107,
373.9924316,0.04978307709,373.9924316,0.07541935146,
373.7980957,0.04942690954,373.7980957,0.0749270916,
373.6037903,0.0489904955,373.6037903,0.07434853911,
373.3706055,0.04822157696,373.3706055,0.07341189682,
373.1762695,0.04787454754,373.1762695,0.07273642719,
372.9819336,0.04755017534,372.9819336,0.07221920043,
372.7875671,0.04721840099,372.7875671,0.07157552242,
372.5932312,0.04688451439,372.5932312,0.07088049501,
372.3988953,0.04662373289,372.3988953,0.0704626441,
372.2045288,0.04621011019,372.2045288,0.06976930797,
371.971283,0.04593580589,371.971283,0.06940056384,
371.7769165,0.04570863768,371.7769165,0.06901865453,
371.58255,0.0453534089,371.58255,0.06894966215,
371.3881531,0.04526229948,371.3881531,0.06872647256,
371.1937561,0.0451320596,371.1937561,0.06872947514,
370.9993896,0.04493720457,370.9993896,0.06859579682,
370.8049622,0.04503927007,370.8049622,0.06864000112,
370.5716553,0.04496594146,370.5716553,0.0685185045,
370.3772583,0.04510029405,370.3772583,0.06872487068,
370.1828613,0.04504802823,370.1828613,0.06878979504,
369.9884033,0.0451108329,369.9884033,0.06889929622,
369.7939758,0.04526468366,369.7939758,0.06890054047,
369.5995483,0.04553738236,369.5995483,0.06923312694,
369.4051208,0.04552789778,369.4051208,0.06916442513,
369.1717834,0.04598040879,369.1717834,0.06958358735,
368.9772949,0.04598000646,368.9772949,0.06978429109,
368.7828674,0.04633093998,368.7828674,0.07009909302,
368.5884094,0.04663430899,368.5884094,0.07064045221,
368.3939209,0.04721358046,368.3939209,0.07108832896,
368.1994934,0.04751032218,368.1994934,0.07153937966,
368.0049744,0.04767787829,368.0049744,0.07183984667,
367.7716064,0.04787001014,367.7716064,0.07239032537,
367.5770874,0.04817393795,367.5770874,0.07302078605,
367.3825989,0.04829951003,367.3825989,0.07314357907,
367.1881409,0.04858703166,367.1881409,0.0736425072,
366.9935913,0.04893819615,366.9935913,0.07393436134,
366.7990723,0.04894459993,366.7990723,0.07421262562,
366.6045227,0.0491505675,366.6045227,0.07462617755,
366.3711243,0.0494309403,366.3711243,0.07492186129,
366.1766052,0.04965127259,366.1766052,0.07499025017,
365.9820557,0.04985162243,365.9820557,0.07529760897,
365.7875061,0.05002705753,365.7875061,0.07535739988,
365.5929871,0.05021621659,365.5929871,0.07568640262,
365.3984375,0.05035705864,365.3984375,0.07585951686,
365.2038574,0.05059659109,365.2038574,0.07598527521,
364.9703979,0.05077241361,364.9703979,0.07625705004,
364.7758179,0.05098926276,364.7758179,0.0764658004,
364.5812073,0.05119486526,364.5812073,0.07646555454,
364.3866577,0.05106478557,364.3866577,0.07638801634,
364.1920471,0.05116690695,364.1920471,0.07635107636,
363.997467,0.0512275137,363.997467,0.07624279708,
363.802887,0.05124653503,363.802887,0.07603643835,
363.5693665,0.05148308724,363.5693665,0.07585846633,
363.3747559,0.05158866197,363.3747559,0.07563574612,
363.1801147,0.0516850464,363.1801147,0.0756021291,
362.9854736,0.05173557624,362.9854736,0.07576501369,
362.790863,0.05173062161,362.790863,0.07587566972,
362.5962524,0.05159828067,362.5962524,0.07608352602,
362.4015808,0.05144036561,362.4015808,0.07613519579,
362.2069397,0.05109069869,362.2069397,0.07644586265,
361.9733887,0.05067684501,361.9733887,0.07642045617,
361.778717,0.05053426698,361.778717,0.07644910365,
361.5840454,0.05032720789,361.5840454,0.07617307454,
361.3893738,0.05030630901,361.3893738,0.07613584399,
361.1947021,0.05022897571,361.1947021,0.0760204643,
361.0000305,0.05014848709,361.0000305,0.07575755566,
360.8053589,0.0498550497,360.8053589,0.07547395676,
360.5717163,0.04967748001,360.5717163,0.07528249174,
360.3770142,0.0496609956,360.3770142,0.07508055121,
360.1823425,0.04934059456,360.1823425,0.07462199777,
359.9876404,0.04901425913,359.9876404,0.07399418205,
359.7929077,0.04863604903,359.7929077,0.0733480826,
359.598175,0.04833315685,359.598175,0.07272066921,
359.4034729,0.04803232476,359.4034729,0.07202332467,
359.1697998,0.04773618281,359.1697998,0.07139656693,
358.9750366,0.04750705883,358.9750366,0.07089695334,
358.7803345,0.04719872028,358.7803345,0.07050739974,
358.5855713,0.04683197662,358.5855713,0.07013827562,
358.3908386,0.04637146369,358.3908386,0.06978590041,
358.1960754,0.04592383653,358.1960754,0.06956839561,
358.0013123,0.04550691321,358.0013123,0.06944099069,
357.8065796,0.0451946184,357.8065796,0.06929767877,
357.5728149,0.04453364387,357.5728149,0.06884212047,
357.3780823,0.04414564371,357.3780823,0.06849095225,
357.1832581,0.04345522076,357.1832581,0.06761421263,
356.9884644,0.04294911399,356.9884644,0.06678503007,
356.7936707,0.04270930961,356.7936707,0.06625243276,
356.598877,0.04234770313,356.598877,0.06565700471,
356.4040833,0.04200405255,356.4040833,0.06512530148,
356.1702881,0.04151618481,356.1702881,0.06454130262,
355.9754639,0.04107091576,355.9754639,0.06388538331,
355.7806702,0.0404949449,355.7806702,0.06323429197,
355.5858459,0.04023975879,355.5858459,0.06255723536,
355.3909912,0.03982340172,355.3909912,0.06202775985,
355.1961365,0.03941931948,355.1961365,0.06151959673,
355.0013123,0.03913499415,355.0013123,0.06096904352,
354.806488,0.03873443604,354.806488,0.06027489528,
354.5726318,0.03833987564,354.5726318,0.0598228164,
354.3777771,0.03810839355,354.3777771,0.05967533961,
354.1829529,0.03785762936,354.1829529,0.05945520476,
353.9880371,0.03751923144,353.9880371,0.05916564912,
353.7931519,0.03734113276,353.7931519,0.05907883123,
353.5982971,0.03682147339,353.5982971,0.05863412842,
353.4034119,0.03655019403,353.4034119,0.0584326759,
353.1695251,0.03633134067,353.1695251,0.05810366943,
352.9746399,0.03620676324,352.9746399,0.05804434419,
352.7797241,0.03605265915,352.7797241,0.05805937573,
352.5848083,0.03588800877,352.5848083,0.05791287497,
352.3898926,0.03578362614,352.3898926,0.05771030858,
352.1949768,0.03549006954,352.1949768,0.05746147409,
352.000061,0.0353673324,352.000061,0.05741889775,
351.8051147,0.0353307128,351.8051147,0.05723823979,
351.5711975,0.0350808762,351.5711975,0.057182841,
351.3762512,0.03503485397,351.3762512,0.05707646161,
351.1813049,0.03486915678,351.1813049,0.05697158352,
350.9863892,0.0347597748,350.9863892,0.05696591735,
350.7914124,0.03460122272,350.7914124,0.05679580197,
350.5964355,0.03450538963,350.5964355,0.05678287894,
350.4014587,0.03455452248,350.4014587,0.05671573803,
350.2064514,0.03448137268,350.2064514,0.05665830895,
349.9725037,0.0343776904,349.9725037,0.05640934035,
349.7775269,0.03432028368,349.7775269,0.05636527762,
349.58255,0.03434659168,349.58255,0.05653127283,
349.3875427,0.03422050923,349.3875427,0.05626522377,
349.1925354,0.03424490243,349.1925354,0.05614357442,
348.9975586,0.03423554823,348.9975586,0.05613718182,
348.8025208,0.03419076651,348.8025208,0.05603585765,
348.568512,0.03411367163,348.568512,0.05590970814,
348.3734741,0.03398468718,348.3734741,0.05561211705,
348.1784363,0.03415326774,348.1784363,0.05557237193,
347.983429,0.03408460692,347.983429,0.05530214682,
347.7883911,0.03422182426,347.7883911,0.05535116047,
347.5933533,0.03414114192,347.5933533,0.05515025929,
347.3982849,0.03406100348,347.3982849,0.05513232946,
347.2032166,0.03409742936,347.2032166,0.05501975119,
346.9691772,0.03405156732,346.9691772,0.05489536375,
346.7740784,0.03392834216,346.7740784,0.05466255173,
346.57901,0.03380850703,346.57901,0.05456186458,
346.3839722,0.03373685107,346.3839722,0.05438863859,
346.1888733,0.03361844271,346.1888733,0.05413272977,
345.9937744,0.03364299983,345.9937744,0.05421352014,
345.7987061,0.03344092891,345.7987061,0.05415026471,
345.6035767,0.03336815909,345.6035767,0.054217536,
345.3694763,0.03311790898,345.3694763,0.05395032465,
345.1743469,0.03297168389,345.1743469,0.0538613461,
344.9792175,0.03270167857,344.9792175,0.05360694602,
344.7841492,0.03257520869,344.7841492,0.05350831896,
344.5889893,0.03224708885,344.5889893,0.05330431461,
344.3938599,0.03211247176,344.3938599,0.05326161906,
344.1987,0.03189564869,344.1987,0.05313928425,
344.0036011,0.03173365444,344.0036011,0.05300996453,
343.7694092,0.03140767291,343.7694092,0.05282692239,
343.5742798,0.03116261028,343.5742798,0.05241590738,
343.3791199,0.03096057847,343.3791199,0.05201821029,
343.18396,0.03074166179,343.18396,0.05161720142,
342.9888,0.03047459386,342.9888,0.05127394572,
342.7936096,0.03038541414,342.7936096,0.05095896125,
342.5984192,0.0300670173,342.5984192,0.05059374124,
342.4032593,0.02998016775,342.4032593,0.05048469082,
342.1690063,0.02970145456,342.1690063,0.05001857504,
341.9738464,0.02930495888,341.9738464,0.0496734716,
341.778656,0.02885584533,341.778656,0.04936686903,
341.5834351,0.02858741954,341.5834351,0.04891553894,
341.3882446,0.0283976905,341.3882446,0.04878393933,
341.1930237,0.02824417502,341.1930237,0.04871307313,
340.9977722,0.02792894654,340.9977722,0.04834368825,
340.8025818,0.02768542431,340.8025818,0.0480273813,
340.5682678,0.02732001245,340.5682678,0.04773280025,
340.3730469,0.02723621763,340.3730469,0.04761334509,
340.1778259,0.02694389038,340.1778259,0.04738584533,
339.9825745,0.02688478865,339.9825745,0.04715754092,
339.7872925,0.02652194723,339.7872925,0.04691548645,
339.5920715,0.02623950318,339.5920715,0.04658900574,
339.3967896,0.02614591084,339.3967896,0.0463100858,
339.2015381,0.0258784648,339.2015381,0.04617636651,
339.0062866,0.02570186183,339.0062866,0.04607687891,
338.7719116,0.02539223246,338.7719116,0.04563660175,
338.5766602,0.02511962876,338.5766602,0.04528418928,
338.3813477,0.02485610358,338.3813477,0.04498684034,
338.1860657,0.02472592145,338.1860657,0.04446994513,
337.9907532,0.02456597611,337.9907532,0.044236321,
337.7954407,0.02444749326,337.7954407,0.04396881908,
337.6001587,0.02427533083,337.6001587,0.04353141412,
337.4048767,0.02415027656,337.4048767,0.04332666472,
337.1704407,0.02379345708,337.1704407,0.0430020988,
336.9751587,0.02373035252,336.9751587,0.04285622388,
336.7798157,0.02343646809,336.7798157,0.04259325191,
336.5844727,0.02341540344,336.5844727,0.04244890809,
336.3891296,0.02330744825,336.3891296,0.04231243581,
336.1937561,0.02326426841,336.1937561,0.04220823571,
335.9984436,0.02305954322,335.9984436,0.0420114398,
335.8030701,0.02294198796,335.8030701,0.0419174917,
335.5686646,0.02277320437,335.5686646,0.04172811657,
335.373291,0.02262695506,335.373291,0.04143236578,
335.1779175,0.02246363647,335.1779175,0.04125701264,
334.9825134,0.02237488702,334.9825134,0.04121613875,
334.7871399,0.02226920612,334.7871399,0.04107398912,
334.5917969,0.02212149277,334.5917969,0.04072940722,
334.3963928,0.02185243182,334.3963928,0.04063783959,
334.2009583,0.02176903188,334.2009583,0.04066342488,
334.0055847,0.02174636163,334.0055847,0.04062920064,
333.7710876,0.0215613097,333.7710876,0.0404901132,
333.5757141,0.02144630812,333.5757141,0.04040589929,
333.380249,0.02126954123,333.380249,0.04047314823,
333.1848145,0.02111969516,333.1848145,0.04051406682,
332.9894409,0.02101967111,332.9894409,0.04057454318,
332.7940063,0.02088783681,332.7940063,0.0407454446,
332.5985413,0.02070784941,332.5985413,0.04055331275,
332.4031372,0.02060607448,332.4031372,0.040365275,
332.1685486,0.02056071907,332.1685486,0.04008561,
331.973114,0.02050945349,331.973114,0.04005818442,
331.7776489,0.02052690275,331.7776489,0.04001203179,
331.5821838,0.02049477212,331.5821838,0.03981599584,
331.3867493,0.0202230271,331.3867493,0.03962793574,
331.1912842,0.02024998516,331.1912842,0.03951678053,
330.9957581,0.02013313398,330.9957581,0.03927410021,
330.8002625,0.02006839029,330.8002625,0.03924310207,
330.6047974,0.02005480789,330.6047974,0.03929665685,
330.3702087,0.01976665109,330.3702087,0.03920165077,
330.1747131,0.01974597946,330.1747131,0.0390990749,
329.9792175,0.01967002638,329.9792175,0.03891571239,
329.7836914,0.01964827813,329.7836914,0.03880867735,
329.5881958,0.01951063052,329.5881958,0.03880785778,
329.3926697,0.01948953979,329.3926697,0.03881561011,
329.1971436,0.01932931878,329.1971436,0.03868890554,
329.0016174,0.01937300153,329.0016174,0.03853258491,
328.7669678,0.01913869381,328.7669678,0.03838149831,
328.5714417,0.01904250681,328.5714417,0.0380186215,
328.375885,0.01892273501,328.375885,0.03785486147,
328.1803284,0.01881718822,328.1803284,0.03764901683,
327.9848022,0.01884578913,327.9848022,0.03755343705,
327.7892151,0.0187698584,327.7892151,0.03753342852,
327.5936279,0.01871820726,327.5936279,0.03733879328,
327.3981018,0.01867556199,327.3981018,0.03731802851,
327.2025146,0.01858515106,327.2025146,0.0371373333,
326.9678345,0.0185145326,326.9678345,0.03729910403,
326.7722473,0.01839739084,326.7722473,0.03730561957,
326.5766602,0.01836490445,326.5766602,0.03734206408,
326.381073,0.01824127138,326.381073,0.03730299696,
326.1854553,0.01810285449,326.1854553,0.03713874519,
325.9898376,0.0179595463,325.9898376,0.03696195781,
325.7942505,0.01788484864,325.7942505,0.03657767549,
325.5986328,0.01787996665,325.5986328,0.03649615869,
325.4030151,0.01785771362,325.4030151,0.03634763882,
325.1682739,0.0179052148,325.1682739,0.03617626429,
324.9726257,0.0178310927,324.9726257,0.03586357459,
324.7769775,0.01780584827,324.7769775,0.03586658463,
324.5813599,0.01776350848,324.5813599,0.03589976206,
324.3856812,0.0177499447,324.3856812,0.03599865735,
324.1900635,0.01766883768,324.1900635,0.03597613052,
323.9944458,0.01766137034,323.9944458,0.03595034406,
323.7987366,0.01751265489,323.7987366,0.03585668653,
323.6030579,0.01733527333,323.6030579,0.03569376841,
323.3682861,0.01716630906,323.3682861,0.03535269946,
323.1725769,0.0171588771,323.1725769,0.03526063263,
322.9769287,0.01709115505,322.9769287,0.03512459993,
322.7812195,0.01702769846,322.7812195,0.03511222452,
322.5855408,0.01704000123,322.5855408,0.03489011154,
322.3898621,0.01715588756,322.3898621,0.03491117805,
322.1941528,0.01699924283,322.1941528,0.03479643166,
321.9984436,0.01704541221,321.9984436,0.03467702866,
321.8027344,0.0169344265,321.8027344,0.03464795649,
321.5678711,0.01693149284,321.5678711,0.03473279998,
321.3721313,0.01682764105,321.3721313,0.03471662104,
321.1764526,0.0167834051,321.1764526,0.03479093313,
320.9807129,0.01682263426,320.9807129,0.03476103768,
320.7849731,0.01678582653,320.7849731,0.03474948555,
320.5892639,0.01683972217,320.5892639,0.03470318764,
320.3934937,0.01683124527,320.3934937,0.03472385556,
320.1977234,0.01687091216,320.1977234,0.03479317576,
320.0020142,0.01683229581,320.0020142,0.03502994403,
319.7670593,0.01677059755,319.7670593,0.03524684906,
319.5713501,0.01661328413,319.5713501,0.03549063206,
319.3755493,0.01637855172,319.3755493,0.03549658507,
319.1797791,0.01636863314,319.1797791,0.03562273085,
318.9840088,0.01620888524,318.9840088,0.03555993363,
318.788208,0.0160415154,318.788208,0.03558212891,
318.5924377,0.01611479558,318.5924377,0.03554527089,
318.3966675,0.01606077515,318.3966675,0.03546877578,
318.2008667,0.016042348,318.2008667,0.03544922918,
318.0050354,0.01605263539,318.0050354,0.03528286889,
317.7700806,0.01594405249,317.7700806,0.03519390151,
317.5742493,0.01589233428,317.5742493,0.03505023196,
317.378418,0.01586704142,317.378418,0.03510352224,
317.1826172,0.0159303844,317.1826172,0.03483474255,
316.9867859,0.01587308198,316.9867859,0.03478686512,
316.7909546,0.01588017121,316.7909546,0.03464526311,
316.5951233,0.01580607146,316.5951233,0.03455483168,
316.3992615,0.01587445289,316.3992615,0.03439237177,
316.2034302,0.01589198597,316.2034302,0.03430961072,
315.9684143,0.01599032432,315.9684143,0.03420560807,
315.7725525,0.0160000734,315.7725525,0.03415385261,
315.5766907,0.01608771831,315.5766907,0.03443204984,
315.3808594,0.01605277136,315.3808594,0.03458045051,
315.1849365,0.01601946354,315.1849365,0.03476552665,
314.9891052,0.01588742062,314.9891052,0.03491777182,
314.7932129,0.01574578136,314.7932129,0.03519280627,
314.59729,0.01556624658,314.59729,0.0353160575,
314.4014587,0.01548635215,314.4014587,0.03531350195,
314.1663208,0.01550671365,314.1663208,0.0352595672,
313.9704285,0.01548444759,313.9704285,0.03524056077,
313.7745667,0.01556332223,313.7745667,0.03518155217,
313.5786438,0.01564862393,313.5786438,0.0351508148,
313.3827209,0.01565740071,313.3827209,0.0351460427,
313.1868286,0.01559619047,313.1868286,0.03505025804,
312.9908752,0.01573136635,312.9908752,0.03504966944,
312.7949524,0.01570592262,312.7949524,0.03504509479,
312.5990295,0.01574583352,312.5990295,0.03508329019,
312.4030762,0.01580910571,312.4030762,0.03515039384,
312.1679688,0.01578996517,312.1679688,0.0352338776,
311.9720154,0.01581439376,311.9720154,0.03548231721,
311.7760315,0.0156816598,311.7760315,0.03551591188,
311.5801086,0.01564878598,311.5801086,0.03559457511,
311.3841248,0.01553163677,311.3841248,0.03562927619,
311.1881714,0.0155864507,311.1881714,0.03571771458,
310.992218,0.01562254131,310.992218,0.03571810946,
310.7962036,0.01558307,310.7962036,0.03568182513,
310.6002502,0.01567959413,310.6002502,0.0357684195,
310.4042053,0.01565128192,310.4042053,0.0358451046,
310.1690369,0.01559696905,310.1690369,0.03583880886,
309.973053,0.01575506851,309.973053,0.0359156169,
309.7770996,0.01577622071,309.7770996,0.03594056144,
309.5810547,0.01583930664,309.5810547,0.03584077582,
309.3850403,0.0158739686,309.3850403,0.03591590002,
309.1890564,0.01591510512,309.1890564,0.03593667969,
308.9930115,0.01599365473,308.9930115,0.0360468626,
308.7969971,0.01597437076,308.7969971,0.03624674678,
308.6009827,0.01594595797,308.6009827,0.03641302511,
308.3656921,0.01591693051,308.3656921,0.03658390045,
308.1697083,0.01592477039,308.1697083,0.03683187068,
307.9736633,0.01597882994,307.9736633,0.03692348674,
307.7775879,0.01585404761,307.7775879,0.03673337772,
307.581543,0.01589824073,307.581543,0.03661194816,
307.3854675,0.01597370021,307.3854675,0.03658643365,
307.1894531,0.01611952484,307.1894531,0.03652116284,
306.9933777,0.01624422148,306.9933777,0.03649176657,
306.7973022,0.01642223448,306.7973022,0.03659984097,
306.6011963,0.01656468771,306.6011963,0.03673850372,
306.3659058,0.01663033664,306.3659058,0.03683415428,
306.1698303,0.01663983054,306.1698303,0.03692759946,
305.9737244,0.0166868493,305.9737244,0.03700251877,
305.7776489,0.01678012125,305.7776489,0.0371465832,
305.581543,0.01685406454,305.581543,0.03714370728,
305.385437,0.01691370271,305.385437,0.03738040477,
305.1893311,0.01694107428,305.1893311,0.03749993071,
304.9932251,0.01704118587,304.9932251,0.0376281552,
304.7970886,0.01705838926,304.7970886,0.03770008683,
304.6009827,0.01716706343,304.6009827,0.03787164018,
304.3656006,0.01714255847,304.3656006,0.03810121492,
304.1694946,0.01708765514,304.1694946,0.03818600252,
303.9733582,0.01716194674,303.9733582,0.03842009977,
303.7772217,0.01714945212,303.7772217,0.03854257241,
303.5810852,0.01718874276,303.5810852,0.03863678128,
303.3849182,0.01725009643,303.3849182,0.03884309903,
303.1887512,0.01741068438,303.1887512,0.03887870908,
302.9926147,0.01752890833,302.9926147,0.03914292529,
302.7964478,0.01769585349,302.7964478,0.03919816762,
302.6002808,0.01770041138,302.6002808,0.03935659677,
302.4040833,0.0178673435,302.4040833,0.03968439996,
302.1687012,0.01813265122,302.1687012,0.04007913545,
301.9724731,0.01817073487,301.9724731,0.04020667449,
301.7763062,0.01820609532,301.7763062,0.04039629549,
301.5801086,0.01831230335,301.5801086,0.04050000012,
301.3839111,0.01845273003,301.3839111,0.04059892893,
301.1877136,0.01857909933,301.1877136,0.04067246616,
300.9915161,0.01867299527,300.9915161,0.04086316749,
300.7952881,0.01896637678,300.7952881,0.04103463888,
300.5990906,0.01917789318,300.5990906,0.04120033979,
300.4028931,0.01923736371,300.4028931,0.04119797796,
300.1674194,0.01938293502,300.1674194,0.04162326455,
299.9711914,0.01964979433,299.9711914,0.04194913805,

Pyranine in acetonitrile 1st run,
Pyranine in acetonitrile 1st run
Collection Time: 1/24/2020 2:53:37 PM
Operator Name  : CameronSlaten
Scan Version 5.1.0.1016
Parameter List :
Instrument  Cary 60
Instrument Version  2.00
Start (nm)  550.0
Stop (nm)  300.0
X Mode  Nanometers
Y Mode  Abs
UV-Vis Scan Rate (nm/min)  60.000
UV-Vis Data Interval (nm)  0.20
UV-Vis Ave. Time (sec)  0.2000
Beam Mode  Dual Beam
Baseline Correction  On
Baseline Type  Baseline correction
Baseline File Name
Baseline Std Ref File Name
Cycle Mode  Off
Method Log     :
Method Name    :
Date/Time stamp: 1/24/2020 2:44:02 PM
Method Modifications:
UVVIS SAT Changed: 1/24/2020 2:45:31 PM, Old:0.0125, New:0.2000
Common SAT Changed: 1/24/2020 2:45:31 PM, Old:0.0125, New:0.2000
Comment Changed: 1/24/2020 2:46:02 PM, Old:, New:Pyranine in acetonitrile
Operator Changed: 1/24/2020 2:46:02 PM, Old:, New:CameronSlaten
X Start nm Changed: 1/24/2020 2:46:02 PM, Old:  800.0, New:  550.0
X Stop nm Changed: 1/24/2020 2:46:02 PM, Old:  200.0, New:  300.0
Common Interval nm Changed: 1/24/2020 2:46:02 PM, Old:     5.00, New:     0.20
Baseline Correction Changed: 1/24/2020 2:46:02 PM, Old:0, New:1
End Method Modifications
<Current Wavelength> , 300.8

Pyranine in acetonitrile 2nd run 5 min sonication,
Pyranine in acetonitrile 2nd run 5 min sonication
Collection Time: 1/24/2020 3:06:22 PM
Operator Name  : CameronSlaten
Scan Version 5.1.0.1016
Parameter List :
Instrument  Cary 60
Instrument Version  2.00
Start (nm)  550.0
Stop (nm)  300.0
X Mode  Nanometers
Y Mode  Abs
UV-Vis Scan Rate (nm/min)  60.000
UV-Vis Data Interval (nm)  0.20
UV-Vis Ave. Time (sec)  0.2000
Beam Mode  Dual Beam
Baseline Correction  On
Baseline Type  Baseline correction
Baseline File Name
Baseline Std Ref File Name
Cycle Mode  Off
Method Log     :
Method Name    :
Date/Time stamp: 1/24/2020 2:44:02 PM
Method Modifications:
UVVIS SAT Changed: 1/24/2020 2:45:31 PM, Old:0.0125, New:0.2000
Common SAT Changed: 1/24/2020 2:45:31 PM, Old:0.0125, New:0.2000
Comment Changed: 1/24/2020 2:46:02 PM, Old:, New:Pyranine in acetonitrile
Operator Changed: 1/24/2020 2:46:02 PM, Old:, New:CameronSlaten
X Start nm Changed: 1/24/2020 2:46:02 PM, Old:  800.0, New:  550.0
X Stop nm Changed: 1/24/2020 2:46:02 PM, Old:  200.0, New:  300.0
Common Interval nm Changed: 1/24/2020 2:46:02 PM, Old:     5.00, New:     0.20
Baseline Correction Changed: 1/24/2020 2:46:02 PM, Old:0, New:1
End Method Modifications
<Current Wavelength> , 300.8

