Pyranine in Acetonitrile,,Pyranine in Acetonitrile,,
Wavelength (nm),Intensity (a.u.),Wavelength (nm),Intensity (a.u.),
380,0.498085469,380,4.714776993,
380.1499939,0.4740055203,380.1499939,4.797120571,
380.4500122,0.508477807,380.4500122,5.240287304,
380.6000061,0.5548969507,380.6000061,5.417098045,
380.75,0.541505754,380.75,5.694126129,
381.0599976,0.5544773936,381.0599976,5.636668682,
381.2099915,0.6800151467,381.2099915,6.059597015,
381.3599854,0.6997001767,381.3599854,6.136609554,
381.6600037,0.7683268785,381.6600037,6.404509544,
381.8099976,0.7627765536,381.8099976,6.847797871,
381.9599915,0.7786880136,381.9599915,6.822774887,
382.269989,0.747345984,382.269989,7.197350502,
382.4200134,0.7419461608,382.4200134,7.312614441,
382.5700073,0.7919462323,382.5700073,7.130288601,
382.7200012,0.7716961503,382.7200012,7.674349308,
383.0299988,0.8229179382,383.0299988,7.701899529,
383.1799927,0.7495680451,383.1799927,7.749889374,
383.3299866,0.8358473778,383.3299866,7.953099728,
383.6300049,0.809243381,383.6300049,7.954445839,
383.7799988,0.8279463649,383.7799988,7.889041901,
383.9299927,0.9530541897,383.9299927,7.898776054,
384.2399902,0.9221667051,384.2399902,8.130809784,
384.3900146,0.832403183,384.3900146,8.459191322,
384.5400085,0.8037082553,384.5400085,8.375631332,
384.8399963,0.8532586098,384.8399963,8.56008625,
385,1.037690163,385,8.462885857,
385.1499939,0.932303369,385.1499939,8.799960136,
385.4500122,0.9940946698,385.4500122,9.085165977,
385.6000061,1.048170209,385.6000061,9.326497078,
385.75,1.023436069,385.75,9.602566719,
386.0599976,0.9482953548,386.0599976,9.515965462,
386.2099915,1.000393629,386.2099915,9.713370323,
386.3599854,1.052120924,386.3599854,9.943145752,
386.6600037,1.009979844,386.6600037,10.46080303,
386.8099976,1.156411052,386.8099976,10.69616127,
386.9599915,1.165413022,386.9599915,10.87590599,
387.269989,1.08366394,387.269989,11.33751392,
387.4200134,1.216482759,387.4200134,11.57385635,
387.5700073,1.116277933,387.5700073,11.73091984,
387.7200012,1.2012012,387.7200012,12.35922813,
388.0299988,1.397343755,388.0299988,13.29496861,
388.1799927,1.280773163,388.1799927,13.29788971,
388.3299866,1.489022732,388.3299866,13.79000187,
388.6300049,1.395516634,388.6300049,14.78998375,
388.7799988,1.499299049,388.7799988,15.25009155,
388.9299927,1.574639201,388.9299927,16.19314194,
389.2399902,1.645703554,389.2399902,17.63677216,
389.3900146,1.830690384,389.3900146,18.09789276,
389.5400085,1.692569137,389.5400085,18.37570572,
389.8399963,1.925807834,389.8399963,19.85615349,
390,2.046839476,390,20.55119896,
390.1499939,1.997848511,390.1499939,21.64412117,
390.4500122,2.394613981,390.4500122,24.82030869,
390.6000061,2.569693089,390.6000061,25.76921844,
390.75,2.639942646,390.75,26.52038765,
391.0599976,2.937796354,391.0599976,29.20882988,
391.2099915,2.978792191,391.2099915,31.41833115,
391.3599854,3.331475496,391.3599854,33.96183777,
391.6600037,3.979822159,391.6600037,40.9018364,
391.8099976,3.961859226,391.8099976,42.87636185,
391.9599915,4.081849098,391.9599915,44.04571533,
392.269989,4.774466038,392.269989,49.82358551,
392.4200134,4.969825745,392.4200134,52.46678925,
392.5700073,5.467734814,392.5700073,57.86075592,
392.7200012,5.9247756,392.7200012,63.19159317,
393.0299988,6.576459408,393.0299988,71.66955566,
393.1799927,7.136824608,393.1799927,74.61297607,
393.3299866,7.576214314,393.3299866,78.20787048,
393.6300049,8.650831223,393.6300049,89.09468842,
393.7799988,9.3101511,393.7799988,96.88500214,
393.9299927,10.2365675,393.9299927,106.2602692,
394.2399902,11.32172489,394.2399902,118.1823502,
394.3900146,11.9814539,394.3900146,122.6264038,
394.5400085,12.16815567,394.5400085,127.669693,
394.8399963,13.86794567,394.8399963,141.7108765,
395,14.70999241,395,152.3032379,
395.1499939,16.22997665,395.1499939,166.8072205,
395.4500122,18.07930756,395.4500122,185.1528473,
395.6000061,18.84307098,395.6000061,191.3559875,
395.75,19.73213577,395.75,200.3788452,
396.0599976,21.93464661,396.0599976,218.9276581,
396.2099915,22.9639492,396.2099915,234.7775726,
396.3599854,25.10195732,396.3599854,254.7192535,
396.6600037,27.48144913,396.6600037,277.4712524,
396.8099976,28.60276985,396.8099976,286.4890747,
396.9599915,29.55464363,396.9599915,296.0813904,
397.269989,32.04732132,397.269989,319.6924438,
397.4200134,33.68773651,397.4200134,336.0220642,
397.5700073,36.21258163,397.5700073,355.5868225,
397.7200012,37.20825195,397.7200012,369.4031677,
398.0299988,38.71727371,398.0299988,387.8971252,
398.1799927,40.43463135,398.1799927,398.1713562,
398.3299866,41.91067886,398.3299866,409.9542542,
398.6300049,45.05857849,398.6300049,443.630249,
398.7799988,46.61270523,398.7799988,459.0392456,
398.9299927,48.09030533,398.9299927,472.7391968,
399.2399902,49.60416794,399.2399902,488.7843628,
399.3900146,50.54440689,399.3900146,495.6428833,
399.5400085,51.58283615,399.5400085,506.6416321,
399.8399963,54.66343689,399.8399963,531.9262695,
400,56.15415573,400,546.6340942,
400.1499939,57.23452759,400.1499939,555.807312,
400.4500122,59.67004776,400.4500122,572.7138672,
400.6000061,60.04288483,400.6000061,581.4970093,
400.75,60.30189896,400.75,588.6309204,
401.0599976,63.49972534,401.0599976,610.1479492,
401.2099915,64.3813858,401.2099915,623.2282715,
401.3599854,64.912323,401.3599854,630.9953613,
401.6600037,66.82646179,401.6600037,640.5441895,
401.8099976,66.65629578,401.8099976,645.0161743,
401.9599915,68.25158691,401.9599915,652.1314087,
402.269989,69.00823975,402.269989,665.2249146,
402.4200134,70.56463623,402.4200134,669.5112305,
402.5700073,70.31564331,402.5700073,674.755127,
402.7200012,71.06903076,402.7200012,678.0465698,
403.0299988,71.08464813,403.0299988,681.7582397,
403.1799927,71.82798004,403.1799927,682.2609863,
403.3299866,71.55148315,403.3299866,687.890564,
403.6300049,72.51980591,403.6300049,692.2752686,
403.7799988,72.23970795,403.7799988,692.5838623,
403.9299927,72.43666077,403.9299927,692.5408936,
404.2399902,72.39241791,404.2399902,693.0594482,
404.3900146,72.5796051,404.3900146,693.4303589,
404.5400085,72.23396301,404.5400085,692.718689,
404.8399963,72.1092453,404.8399963,691.6265259,
405,71.3393631,405,688.5450439,
405.1499939,71.89907074,405.1499939,687.7662964,
405.4500122,70.68328857,405.4500122,682.9732056,
405.6000061,70.52024078,405.6000061,680.9380493,
405.75,70.87696075,405.75,677.5368042,
406.0599976,70.2077713,406.0599976,669.010437,
406.2099915,69.37130737,406.2099915,663.2247314,
406.3599854,69.89033508,406.3599854,661.5493774,
406.6600037,68.52490234,406.6600037,655.9905396,
406.8099976,68.49705505,406.8099976,655.524292,
406.9599915,68.18621063,406.9599915,650.097229,
407.269989,66.5243988,407.269989,637.2523804,
407.4200134,66.53709412,407.4200134,632.1647339,
407.5700073,66.51129913,407.5700073,626.5369263,
407.7200012,65.73421478,407.7200012,625.1558228,
408.0299988,65.60633087,408.0299988,620.8557129,
408.1799927,63.42149353,408.1799927,611.1641235,
408.3299866,64.1574707,408.3299866,607.5422974,
408.6300049,62.39914703,408.6300049,593.4993896,
408.7799988,62.35607147,408.7799988,589.6396484,
408.9299927,61.11304474,408.9299927,587.8669434,
409.2399902,60.37140656,409.2399902,579.9344482,
409.3900146,59.7409935,409.3900146,573.1815796,
409.5400085,59.64643478,409.5400085,568.2774658,
409.8399963,58.72907257,409.8399963,557.7039795,
410,57.86962891,410,550.0230103,
410.1499939,57.04065704,410.1499939,547.0120239,
410.4500122,57.013237,410.4500122,538.8383789,
410.6000061,56.40481949,410.6000061,533.0793457,
410.75,54.96459579,410.75,528.5065308,
411.0599976,54.53376389,411.0599976,511.3189087,
411.2099915,53.08535004,411.2099915,511.1402893,
411.3599854,53.60186768,411.3599854,508.446991,
411.6600037,52.31401443,411.6600037,497.229187,
411.8099976,52.22960663,411.8099976,493.7624817,
411.9599915,50.48473358,411.9599915,488.6983948,
412.269989,49.34624481,412.269989,476.0137939,
412.4200134,49.80372238,412.4200134,476.1730652,
412.5700073,48.8712883,412.5700073,472.447052,
412.7200012,49.11394501,412.7200012,469.9357605,
413.0299988,48.15441895,413.0299988,462.7073975,
413.1799927,48.09511566,413.1799927,460.0455627,
413.3299866,47.59617615,413.3299866,455.6785889,
413.6300049,47.12312698,413.6300049,450.3957825,
413.7799988,46.75584412,413.7799988,448.7041931,
413.9299927,46.06790543,413.9299927,444.5061646,
414.2399902,46.28247833,414.2399902,441.6077271,
414.3900146,45.57094193,414.3900146,438.8923035,
414.5400085,45.23976135,414.5400085,435.7650146,
414.8399963,44.99404144,414.8399963,434.561676,
415,45.22112656,415,431.7615356,
415.1499939,44.08735657,415.1499939,432.0103455,
415.4500122,44.09228897,415.4500122,428.1963501,
415.6000061,44.61034775,415.6000061,426.5513,
415.75,44.8492775,415.75,427.9056396,
416.0599976,43.9593544,416.0599976,427.255127,
416.2099915,44.79889679,416.2099915,426.9259644,
416.3599854,44.56485367,416.3599854,428.4155884,
416.6600037,44.45052719,416.6600037,427.2287903,
416.8099976,44.30387878,416.8099976,430.4580994,
416.9599915,45.02845001,416.9599915,429.6283875,
417.269989,44.98256302,417.269989,434.4047852,
417.4200134,45.40496445,417.4200134,433.0195618,
417.5700073,44.84516144,417.5700073,435.3616638,
417.7200012,45.19139481,417.7200012,435.9291687,
418.0299988,46.02143478,418.0299988,440.9982605,
418.1799927,46.00001526,418.1799927,442.1451721,
418.3299866,46.00967026,418.3299866,444.6133118,
418.6300049,46.78189468,418.6300049,447.7422485,
418.7799988,46.99006271,418.7799988,446.9902954,
418.9299927,46.83327484,418.9299927,448.3399048,
419.2399902,47.17983246,419.2399902,454.460968,
419.3900146,47.29813766,419.3900146,454.8375244,
419.5400085,47.61904907,419.5400085,456.8414001,
419.8399963,47.99755478,419.8399963,459.3919067,
420,47.79440308,420,463.7835693,
420.1499939,47.83335495,420.1499939,459.9927368,
420.4500122,48.72207642,420.4500122,468.5544739,
420.6000061,49.17486572,420.6000061,468.609436,
420.75,49.43951797,420.75,472.032196,
421.0599976,49.74739838,421.0599976,475.0242615,
421.2099915,49.73590088,421.2099915,475.1987,
421.3599854,49.9323616,421.3599854,477.0487061,
421.6600037,50.15479279,421.6600037,479.1559448,
421.8099976,50.05093765,421.8099976,481.8248596,
421.9599915,50.37003326,421.9599915,481.1377258,
422.269989,50.83197021,422.269989,483.2062683,
422.4200134,50.29787445,422.4200134,485.4461975,
422.5700073,50.86281586,422.5700073,487.500946,
422.7200012,51.47904968,422.7200012,488.1782227,
423.0299988,51.19501114,423.0299988,489.9962769,
423.1799927,51.45642853,423.1799927,488.2613525,
423.3299866,50.81959915,423.3299866,489.5800781,
423.6300049,50.93089294,423.6300049,491.0169067,
423.7799988,50.96057892,423.7799988,491.3792114,
423.9299927,51.21297455,423.9299927,491.794342,
424.2399902,51.06306076,424.2399902,490.7072144,
424.3900146,50.77578354,424.3900146,490.5228577,
424.5400085,51.35896683,424.5400085,489.7876587,
424.8399963,51.17483139,424.8399963,491.3606567,
425,51.2555275,425,488.9649048,
425.1499939,51.53475952,425.1499939,487.8589478,
425.4500122,50.60842133,425.4500122,487.6953125,
425.6000061,51.0301857,425.6000061,484.9072876,
425.75,50.53271484,425.75,485.8528442,
426.0599976,50.27962112,426.0599976,484.5259705,
426.2099915,50.68257523,426.2099915,483.5524292,
426.3599854,50.36500168,426.3599854,481.3998108,
426.6600037,49.95714951,426.6600037,478.0569763,
426.8099976,49.99450302,426.8099976,476.1827698,
426.9599915,50.08587265,426.9599915,475.5192871,
427.269989,49.55831528,427.269989,472.2421265,
427.4200134,49.13190079,427.4200134,471.2158508,
427.5700073,49.21035767,427.5700073,466.9898987,
427.7200012,49.11788177,427.7200012,464.8628845,
428.0299988,48.39396667,428.0299988,459.4488831,
428.1799927,47.94617844,428.1799927,459.2913208,
428.3299866,48.17682266,428.3299866,458.4223938,
428.6300049,47.45709991,428.6300049,454.026825,
428.7799988,47.48627853,428.7799988,449.736908,
428.9299927,47.30915833,428.9299927,447.6123657,
429.2399902,45.45603943,429.2399902,441.9670105,
429.3900146,45.61740494,429.3900146,438.1528931,
429.5400085,46.09667587,429.5400085,437.6062622,
429.8399963,45.0334549,429.8399963,433.9725342,
430,45.42367172,430,429.0527039,
430.1499939,44.43434906,430.1499939,424.5419312,
430.4500122,43.90814972,430.4500122,417.780365,
430.6000061,43.95248413,430.6000061,414.9840698,
430.75,42.52807236,430.75,411.646698,
431.0599976,42.20278931,431.0599976,409.0917358,
431.2099915,42.49861908,431.2099915,403.408905,
431.3599854,42.09175873,431.3599854,399.5885925,
431.6600037,41.06275177,431.6600037,390.4471436,
431.8099976,40.49097061,431.8099976,388.9795532,
431.9599915,40.26446152,431.9599915,385.6675415,
432.269989,40.45377731,432.269989,380.7642822,
432.4200134,39.39863205,432.4200134,376.5397339,
432.5700073,39.13516617,432.5700073,373.079895,
432.7200012,38.55989456,432.7200012,369.0707703,
433.0299988,38.3218956,433.0299988,362.1156311,
433.1799927,38.1771965,433.1799927,359.2590942,
433.3299866,38.10937881,433.3299866,358.5152893,
433.6300049,37.45051193,433.6300049,352.9703064,
433.7799988,36.81307983,433.7799988,349.4925232,
433.9299927,36.23323441,433.9299927,344.352417,
434.2399902,35.69772339,434.2399902,338.250885,
434.3900146,35.43742371,434.3900146,335.9228821,
434.5400085,34.57012177,434.5400085,333.7044983,
434.8399963,34.35437012,434.8399963,326.087616,
435,33.84615326,435,325.47995,
435.1499939,33.12525177,435.1499939,317.1312256,
435.4500122,32.68374252,435.4500122,311.8153381,
435.6000061,32.33978653,435.6000061,312.0923157,
435.75,32.16887283,435.75,306.3592529,
436.0599976,31.55078316,436.0599976,302.3832397,
436.2099915,31.15434647,436.2099915,297.0773621,
436.3599854,30.85728645,436.3599854,294.0552979,
436.6600037,30.26745796,436.6600037,289.7846375,
436.8099976,30.21380615,436.8099976,287.4268188,
436.9599915,29.76047897,436.9599915,284.6621704,
437.269989,29.68198776,437.269989,278.4723511,
437.4200134,29.15484619,437.4200134,276.4008789,
437.5700073,28.7379818,437.5700073,272.9811096,
437.7200012,28.53602028,437.7200012,271.1607666,
438.0299988,27.79392624,438.0299988,265.8669739,
438.1799927,27.5727253,438.1799927,264.2867432,
438.3299866,27.25867462,438.3299866,262.9572449,
438.6300049,27.48529625,438.6300049,258.5212708,
438.7799988,26.61211205,438.7799988,255.5757751,
438.9299927,26.48052597,438.9299927,254.9613953,
439.2399902,25.97767067,439.2399902,251.8285828,
439.3900146,26.4257164,439.3900146,249.153717,
439.5400085,26.05246925,439.5400085,245.0086975,
439.8399963,25.16844177,439.8399963,241.9466705,
440,25.35911751,440,238.7231598,
440.1400146,25.01597786,440.1400146,237.2402802,
440.4400024,24.32557869,440.4400024,233.3698425,
440.5899963,24.47275543,440.5899963,231.5305786,
440.7399902,24.38755417,440.7399902,231.2627411,
441.0400085,23.97819328,441.0400085,227.7823639,
441.1900024,23.56046295,441.1900024,225.1301117,
441.3399963,23.6194725,441.3399963,223.3102875,
441.6400146,23.06331062,441.6400146,220.8708191,
441.7900085,23.35430336,441.7900085,221.2947845,
441.9400024,22.93822098,441.9400024,218.8758087,
442.230011,22.5412674,442.230011,215.5992432,
442.3800049,22.54984665,442.3800049,213.3950806,
442.5299988,22.06117821,442.5299988,212.7646179,
442.8299866,22.0580349,442.8299866,210.4878998,
442.980011,21.95185471,442.980011,210.0159302,
443.1300049,21.6733284,443.1300049,209.3445129,
443.4299927,22.0609684,443.4299927,206.5606689,
443.5799866,21.17783737,443.5799866,204.7035522,
443.730011,21.2204628,443.730011,202.8379974,
444.019989,21.0274334,444.019989,201.3938751,
444.1700134,20.63298988,444.1700134,200.3264618,
444.3200073,20.90528488,444.3200073,198.8970947,
444.6199951,20.23487854,444.6199951,196.2127991,
444.769989,20.24061584,444.769989,195.631958,
445.0700073,20.15634346,445.0700073,194.2397614,
445.2200012,20.19360733,445.2200012,191.9676361,
445.3699951,20.15876961,445.3699951,192.6085815,
445.6700134,19.46576691,445.6700134,189.3556519,
445.8200073,19.6054554,445.8200073,187.3901215,
445.9700012,19.4227047,445.9700012,186.6057892,
446.2600098,18.96304512,446.2600098,184.3565979,
446.4100037,19.61063194,446.4100037,184.499649,
446.5599976,19.2881279,446.5599976,184.270462,
446.7099915,19.31409264,446.7099915,184.0344543,
447.0100098,19.15247345,447.0100098,181.0643005,
447.1600037,18.80823708,447.1600037,179.2960205,
447.4599915,18.38415527,447.4599915,178.5046997,
447.6099854,18.77958679,447.6099854,177.2639465,
447.7600098,18.78017235,447.7600098,177.0167542,
448.0499878,18.358881,448.0499878,175.5126495,
448.2000122,18.31397438,448.2000122,174.6555786,
448.3500061,18.21078873,448.3500061,172.8681335,
448.6499939,17.86060333,448.6499939,171.6230011,
448.7999878,17.82653046,448.7999878,171.161438,
448.9500122,17.71624184,448.9500122,170.510437,
449.25,17.14659309,449.25,170.0428009,
449.3999939,17.37725067,449.3999939,168.6712646,
449.5499878,17.32271194,449.5499878,166.6819153,
449.8500061,17.27438354,449.8500061,164.9772797,
450,17.2683754,450,164.2073364,
450.1499939,17.25550842,450.1499939,163.8905182,
450.4500122,16.95154381,450.4500122,162.230896,
450.6000061,16.72547531,450.6000061,161.1678772,
450.75,16.70727348,450.75,160.1182709,
451.0599976,16.77310562,451.0599976,158.146698,
451.2099915,16.459198,451.2099915,158.8361206,
451.3599854,16.44802666,451.3599854,156.7505646,
451.6600037,16.38653946,451.6600037,153.638092,
451.8099976,16.29029655,451.8099976,154.3487854,
451.9599915,15.96512985,451.9599915,153.1776733,
452.269989,16.1758213,452.269989,152.1921997,
452.4200134,15.85433483,452.4200134,151.3547974,
452.5700073,15.80106449,452.5700073,149.7763214,
452.7200012,15.64547062,452.7200012,149.9072418,
453.0299988,15.51632595,453.0299988,147.8462372,
453.1799927,15.16182137,453.1799927,145.5337524,
453.3299866,15.39449596,453.3299866,145.0547791,
453.6300049,15.26944733,453.6300049,144.1724396,
453.7799988,14.93456459,453.7799988,143.4546051,
453.9299927,14.77867317,453.9299927,142.8084106,
454.2399902,14.84648705,454.2399902,140.5171204,
454.3900146,14.45226097,454.3900146,139.5505219,
454.5400085,14.45194244,454.5400085,137.1754761,
454.8399963,14.45129871,454.8399963,136.3730316,
455,14.22154713,455,134.1846771,
455.1499939,14.07384396,455.1499939,135.2607574,
455.4500122,13.88163471,455.4500122,132.8661041,
455.6000061,13.99320412,455.6000061,130.4925842,
455.75,13.53490448,455.75,130.3930054,
456.0599976,13.29624557,456.0599976,129.6483765,
456.2099915,13.28700066,456.2099915,128.7417908,
456.3599854,13.54939461,456.3599854,127.5110092,
456.6600037,13.10808277,456.6600037,125.6544876,
456.8099976,12.73868847,456.8099976,123.8056717,
456.9599915,12.79082298,456.9599915,122.3260117,
457.269989,13.18310261,457.269989,121.102417,
457.4200134,12.94913578,457.4200134,121.3857651,
457.5700073,12.6384697,457.5700073,119.6615982,
457.7200012,12.55499172,457.7200012,118.8864212,
458.0299988,12.37777615,458.0299988,117.1667709,
458.1799927,12.38202381,458.1799927,116.1931534,
458.3299866,12.10214329,458.3299866,115.4869614,
458.6300049,11.96483135,458.6300049,114.1953735,
458.7799988,11.56705284,458.7799988,113.1931915,
458.9299927,11.60437584,458.9299927,112.3727798,
459.2399902,11.24941349,459.2399902,110.2569885,
459.3900146,11.30525398,459.3900146,108.7811279,
459.5400085,11.14662933,459.5400085,107.9383163,
459.8399963,11.40569782,459.8399963,107.0507813,
460,11.23779583,460,106.5728149,
460.1400146,11.07584858,460.1400146,104.646492,
460.4400024,10.55204105,460.4400024,103.5101242,
460.5899963,10.68805981,460.5899963,101.7620773,
460.7399902,10.80512333,460.7399902,102.349678,
461.0400085,10.44112396,461.0400085,100.2132187,
461.1900024,10.4432745,461.1900024,100.9801941,
461.3399963,10.13402462,461.3399963,99.20878601,
461.6400146,10.13379669,461.6400146,96.68618774,
461.7900085,9.821156502,461.7900085,96.12438965,
461.9400024,10.10291672,461.9400024,95.55125427,
462.230011,9.829161644,462.230011,94.67072296,
462.3800049,9.828683853,462.3800049,93.29644012,
462.5299988,9.911570549,462.5299988,93.48340607,
462.8299866,9.681838036,462.8299866,90.47546387,
462.980011,9.218504906,462.980011,90.26592255,
463.1300049,9.233795166,463.1300049,88.94555664,
463.4299927,9.050614357,463.4299927,87.07124329,
463.5799866,9.16193676,463.5799866,87.84399414,
463.730011,9.247102737,463.730011,86.70835876,
464.019989,8.619613647,464.019989,84.88925171,
464.1700134,8.741491318,464.1700134,83.52165985,
464.3200073,8.533268929,464.3200073,83.44311523,
464.6199951,8.953596115,464.6199951,82.39109039,
464.769989,8.373212814,464.769989,81.27467346,
465.0700073,8.391861916,465.0700073,80.72856903,
465.2200012,8.018133163,465.2200012,79.68424988,
465.3699951,8.327095032,465.3699951,78.63852692,
465.6700134,8.347802162,465.6700134,77.86322784,
465.8200073,8.026439667,465.8200073,76.64388275,
465.9700012,8.001391411,465.9700012,76.80636597,
466.2600098,7.894804001,466.2600098,74.79605103,
466.4100037,7.866378784,466.4100037,74.1546936,
466.5599976,7.802974701,466.5599976,73.31231689,
466.7099915,7.858167171,466.7099915,72.69644165,
467.0100098,7.363474369,467.0100098,71.51720428,
467.1600037,7.348467827,467.1600037,71.35267639,
467.4599915,7.309093952,467.4599915,70.16376495,
467.6099854,7.399274826,467.6099854,68.80657196,
467.7600098,7.302238941,467.7600098,69.07478333,
468.0499878,7.343225002,468.0499878,67.86901093,
468.2000122,6.956931114,468.2000122,66.75077057,
468.3500061,7.067574024,468.3500061,67.33705139,
468.6499939,6.925028324,468.6499939,65.47177124,
468.7999878,6.528821945,468.7999878,64.79033661,
468.9500122,6.66039753,468.9500122,64.79788208,
469.25,6.646432877,469.25,63.30192184,
469.3999939,6.638309479,469.3999939,63.81941605,
469.5499878,6.764294147,469.5499878,62.41818619,
469.8500061,6.224133015,469.8500061,60.85737228,
470,6.543201923,470,60.16398239,
470.1400146,6.210415363,470.1400146,60.6662674,
470.4400024,6.168376446,470.4400024,59.89784241,
470.5899963,6.260939121,470.5899963,59.33302689,
470.7399902,6.012204647,470.7399902,58.83335876,
471.0400085,6.125234127,471.0400085,57.48299026,
471.1900024,5.867656708,471.1900024,56.52584076,
471.3399963,5.857586384,471.3399963,56.74710846,
471.6400146,6.139687061,471.6400146,56.19865417,
471.7900085,5.822964191,471.7900085,55.67987442,
471.9400024,5.572097301,471.9400024,55.3180542,
472.230011,5.819012165,472.230011,53.88527298,
472.3800049,5.684998512,472.3800049,53.57643127,
472.5299988,5.493215561,472.5299988,53.85132599,
472.8299866,5.43330431,472.8299866,52.771698,
472.980011,5.581226349,472.980011,52.19187164,
473.1300049,5.582142353,473.1300049,52.10643768,
473.4299927,5.257057667,473.4299927,50.85100555,
473.5799866,5.079420567,473.5799866,50.13085175,
473.730011,5.308944225,473.730011,49.80303955,
474.019989,5.410330296,474.019989,49.94528961,
474.1700134,5.095796108,474.1700134,48.97202682,
474.3200073,5.102803707,474.3200073,48.67333603,
474.6199951,4.909392357,474.6199951,47.97382736,
474.769989,5.04242754,474.769989,47.5312233,
475.0700073,5.026833057,475.0700073,46.46186066,
475.2200012,4.857987404,475.2200012,46.39892197,
475.3699951,4.764097214,475.3699951,46.36788177,
475.6700134,4.56895113,475.6700134,45.24640274,
475.8200073,4.605418205,475.8200073,44.85903931,
475.9700012,4.711926937,475.9700012,44.59918594,
476.2600098,4.583217621,476.2600098,44.4040451,
476.4100037,4.727303028,476.4100037,43.64484406,
476.5599976,4.603482723,476.5599976,43.74726105,
476.7099915,4.696008682,476.7099915,43.22708511,
477.0100098,4.51977396,477.0100098,42.8422966,
477.1600037,4.405202866,477.1600037,41.82722855,
477.4599915,4.434880733,477.4599915,41.55156326,
477.6099854,4.538808823,477.6099854,41.30353928,
477.7600098,4.382631779,477.7600098,41.61272812,
478.0499878,4.305767059,478.0499878,40.68728256,
478.2000122,4.193395615,478.2000122,40.25005722,
478.3500061,4.244465828,478.3500061,39.58856964,
478.6499939,4.188296795,478.6499939,38.754776,
478.7999878,4.073991776,478.7999878,39.04801178,
478.9500122,4.19570446,478.9500122,38.47186661,
479.25,4.016140938,479.25,38.10356903,
479.3999939,3.989821196,479.3999939,37.98547363,
479.5499878,3.960232258,479.5499878,37.31624222,
479.8500061,3.945439577,479.8500061,37.10411072,
480,3.893168449,480,36.79945374,
480.1400146,3.83275938,480.1400146,36.2125473,
480.4400024,3.715086937,480.4400024,35.894104,
480.5899963,3.902357578,480.5899963,35.55512238,
480.7399902,3.832496881,480.7399902,35.00819778,
481.0400085,3.678406,481.0400085,35.07711411,
481.1900024,3.709439754,481.1900024,34.94830322,
481.3399963,3.627324343,481.3399963,34.12309265,
481.6400146,3.463247299,481.6400146,34.19564056,
481.7900085,3.550125122,481.7900085,33.57710266,
481.9400024,3.493550539,481.9400024,33.23398972,
482.230011,3.569876432,482.230011,32.68164444,
482.3800049,3.463306427,482.3800049,32.50162888,
482.5299988,3.226291418,482.5299988,32.22075272,
482.8299866,3.481299162,482.8299866,31.77135849,
482.980011,3.414504528,482.980011,31.38336563,
483.1300049,3.415548086,483.1300049,31.38067627,
483.4299927,3.370443583,483.4299927,30.4448204,
483.5799866,3.330500603,483.5799866,30.72977066,
483.730011,3.118503094,483.730011,30.12729073,
484.019989,3.097295284,484.019989,29.59046555,
484.1700134,2.943720818,484.1700134,29.39866257,
484.3200073,2.967471838,484.3200073,28.78559875,
484.6199951,3.085059643,484.6199951,28.35965919,
484.769989,2.921201468,484.769989,28.54126549,
485.0700073,3.051362514,485.0700073,28.07740593,
485.2200012,3.030641079,485.2200012,28.2394371,
485.3699951,2.878330231,485.3699951,27.30502892,
485.6700134,2.997676134,485.6700134,27.12669373,
485.8200073,2.859741926,485.8200073,26.99061775,
485.9700012,2.737695694,485.9700012,26.66339874,
486.2600098,2.664558411,486.2600098,26.65716553,
486.4100037,2.668716908,486.4100037,26.44485474,
486.5599976,2.708013058,486.5599976,25.8564415,
486.7099915,2.598866701,486.7099915,25.87904358,
487.0100098,2.58182478,487.0100098,25.6902504,
487.1600037,2.693086386,487.1600037,25.08819962,
487.4599915,2.489533186,487.4599915,24.87329865,
487.6099854,2.672543764,487.6099854,24.79829979,
487.7600098,2.686706781,487.7600098,24.67526817,
488.0499878,2.492208004,488.0499878,23.60788536,
488.2000122,2.507357836,488.2000122,23.9169445,
488.3500061,2.487261534,488.3500061,23.74147797,
488.6499939,2.356400728,488.6499939,23.44484138,
488.7999878,2.42403841,488.7999878,23.07569885,
488.9500122,2.421230555,488.9500122,22.94184685,
489.25,2.37847662,489.25,22.07466698,
489.3999939,2.451690197,489.3999939,22.07169724,
489.5499878,2.354067087,489.5499878,22.27684212,
489.8500061,2.280751467,489.8500061,21.76889229,
490,2.264752865,490,21.77120399,
490.1400146,2.393151283,490.1400146,21.8053112,
490.4400024,2.181081057,490.4400024,20.76080132,
490.5899963,2.136250973,490.5899963,20.73923492,
490.7399902,2.260570765,490.7399902,20.79084587,
491.0400085,2.223313808,491.0400085,20.75123024,
491.1900024,2.157861948,491.1900024,20.32741547,
491.3399963,2.062727451,491.3399963,20.47447014,
491.6400146,2.165771723,491.6400146,19.96573448,
491.7900085,2.035252333,491.7900085,19.84466743,
491.9400024,2.151127815,491.9400024,19.30783844,
492.230011,2.035251856,492.230011,18.9787941,
492.3800049,2.104501724,492.3800049,19.03831291,
492.5299988,1.977991819,492.5299988,19.35115242,
492.8299866,1.979553342,492.8299866,18.70721436,
492.980011,1.982798815,492.980011,18.12793541,
493.1300049,1.87656641,493.1300049,18.33809853,
493.4299927,1.865707874,493.4299927,18.34964371,
493.5799866,1.965269446,493.5799866,17.95777321,
493.730011,1.742204547,493.730011,17.57941246,
494.019989,1.980890989,494.019989,17.70255852,
494.1700134,1.772814751,494.1700134,17.23843384,
494.3200073,1.694735765,494.3200073,16.85326195,
494.6199951,1.739941001,494.6199951,16.76072121,
494.769989,1.737071157,494.769989,16.5964756,
495.0700073,1.65711534,495.0700073,16.64911842,
495.2200012,1.663820148,495.2200012,15.74315166,
495.3699951,1.730597377,495.3699951,16.07622528,
495.6700134,1.607960343,495.6700134,15.8758707,
495.8200073,1.664348006,495.8200073,15.7371521,
495.9700012,1.577257276,495.9700012,15.52038765,
496.2600098,1.576992154,496.2600098,14.78719902,
496.4100037,1.647971034,496.4100037,15.39038754,
496.5599976,1.578442931,496.5599976,14.97990036,
496.7099915,1.607392788,496.7099915,15.18438244,
497.0100098,1.508521318,497.0100098,14.69907188,
497.1600037,1.604625344,497.1600037,14.85321903,
497.4599915,1.552542329,497.4599915,14.27147579,
497.6099854,1.535235524,497.6099854,14.47729588,
497.7600098,1.497334242,497.7600098,13.99814129,
498.0499878,1.481031418,498.0499878,13.74735928,
498.2000122,1.411481261,498.2000122,13.66245556,
498.3500061,1.484176159,498.3500061,13.57499981,
498.6499939,1.37523067,498.6499939,13.25559711,
498.7999878,1.40728426,498.7999878,13.31673145,
498.9500122,1.362894058,498.9500122,13.12910271,
499.25,1.366831183,499.25,13.00189877,
499.3999939,1.203126907,499.3999939,12.84878635,
499.5499878,1.328520536,499.5499878,12.69693661,
499.8500061,1.278748512,499.8500061,12.50466633,
500,1.294640064,500,12.23014927,
500.1400146,1.281954169,500.1400146,11.83264446,
500.4400024,1.279492259,500.4400024,12.25099468,
500.5899963,1.329319358,500.5899963,11.94615269,
500.7399902,1.314270973,500.7399902,11.79874516,
501.0400085,1.246205449,501.0400085,11.52755642,
501.1900024,1.227959037,501.1900024,11.38564587,
501.3399963,1.233841419,501.3399963,11.80921078,
501.6400146,1.182867408,501.6400146,11.35125732,
501.7900085,1.238092184,501.7900085,11.22725487,
501.9400024,1.223990202,501.9400024,11.22654343,
502.230011,1.193912983,502.230011,10.9516983,
502.3800049,1.160871744,502.3800049,10.88255882,
502.5299988,1.216575384,502.5299988,10.49306107,
502.8299866,1.068758965,502.8299866,10.70866966,
502.980011,1.196934223,502.980011,10.37558746,
503.1300049,1.1061306,503.1300049,10.40692329,
503.4299927,1.227009535,503.4299927,9.822119713,
503.5799866,1.083402634,503.5799866,9.873528481,
503.730011,0.9907550216,503.730011,10.05962658,
504.019989,1.05084002,504.019989,9.744439125,
504.1700134,1.098332644,504.1700134,9.993321419,
504.3200073,0.8702059388,504.3200073,9.603885651,
504.6199951,1.019603968,504.6199951,9.475446701,
504.769989,1.03160882,504.769989,9.350610733,
505.0700073,0.9639009237,505.0700073,9.204715729,
505.2200012,0.9959904552,505.2200012,9.19777298,
505.3699951,0.9809443951,505.3699951,9.152580261,
505.6700134,0.947719574,505.6700134,8.872545242,
505.8200073,0.9339424968,505.8200073,8.799271584,
505.9700012,0.9745371342,505.9700012,8.915444374,
506.2600098,0.9564891458,506.2600098,8.597524643,
506.4100037,0.961538434,506.4100037,8.535113335,
506.5599976,0.9429720044,506.5599976,8.918903351,
506.7099915,0.9346087575,506.7099915,8.508060455,
507.0100098,0.8958154321,507.0100098,8.106025696,
507.1600037,0.8337788582,507.1600037,8.125312805,
507.4599915,0.8642934561,507.4599915,8.157103539,
507.6099854,0.9284054637,507.6099854,8.179603577,
507.7600098,0.8663226366,507.7600098,8.090763092,
508.0499878,0.8540561795,508.0499878,7.944163799,
508.2000122,0.7953892946,508.2000122,7.658987522,
508.3500061,0.778175056,508.3500061,7.462686539,
508.6499939,0.7812099457,508.6499939,7.745494366,
508.7999878,0.8501420021,508.7999878,7.739824772,
508.9500122,0.8029205799,508.9500122,7.754898548,
509.25,0.7725344896,509.25,7.361045837,
509.3999939,0.8582527637,509.3999939,7.323366642,
509.5499878,0.8000944257,509.5499878,7.027415752,
509.8500061,0.8835688233,509.8500061,7.010714531,
510,0.7235142589,510,7.027702808,
510.1400146,0.8137123585,510.1400146,6.944575787,
510.4400024,0.6848651171,510.4400024,7.118562698,
510.5799866,0.6573790908,510.5799866,6.942642212,
510.730011,0.7946509719,510.730011,6.746562004,
511.019989,0.7174910307,511.019989,6.510286331,
511.1700134,0.7185809612,511.1700134,6.448749065,
511.4700012,0.7485694885,511.4700012,6.462429523,
511.6099854,0.7520905137,511.6099854,6.516979694,
511.7600098,0.7008799911,511.7600098,6.286963463,
512.0499878,0.675522089,512.0499878,6.339998245,
512.2000122,0.6938377023,512.2000122,6.168849945,
512.3499756,0.6776410341,512.3499756,6.035874367,
512.6400146,0.6217209101,512.6400146,5.896805763,
512.789978,0.6293305755,512.789978,6.153291225,
512.9400024,0.6365091801,512.9400024,5.931359291,
513.2299805,0.560056746,513.2299805,5.920531273,
513.3800049,0.6312277317,513.3800049,5.878540039,
513.5200195,0.6169685125,513.5200195,5.632003784,
513.8200073,0.5801341534,513.8200073,5.855678558,
513.9699707,0.6621799469,513.9699707,5.843077183,
514.2600098,0.5290705562,514.2600098,5.42654562,
514.4099731,0.5774287581,514.4099731,5.602384567,
514.5499878,0.6043589711,514.5499878,5.621840477,
514.8499756,0.7029809952,514.8499756,5.278634548,
515,0.5379740596,515,5.321033955,
515.1400146,0.4899220765,515.1400146,5.29603672,
515.4400024,0.6360109448,515.4400024,5.332817078,
515.5800171,0.5900042057,515.5800171,4.944375515,
515.7299805,0.584705174,515.7299805,5.158008099,
516.0200195,0.5990213752,516.0200195,5.312175751,
516.1699829,0.5400110483,516.1699829,5.054285526,
516.4699707,0.4418550134,516.4699707,5.095566273,
516.6099854,0.4642030299,516.6099854,4.995895863,
516.7600098,0.4359551072,516.7600098,4.866648674,
517.0499878,0.5656642318,517.0499878,4.892242432,
517.2000122,0.5088930726,517.2000122,4.696538448,
517.3499756,0.5228986144,517.3499756,4.787059307,
517.6400146,0.5344668031,517.6400146,4.779026031,
517.789978,0.4764442146,517.789978,4.580741882,
517.9400024,0.5174660683,517.9400024,4.468763351,
518.2299805,0.4744283259,518.2299805,4.523634434,
518.3800049,0.4352421761,518.3800049,4.305894852,
518.5200195,0.4728897214,518.5200195,4.409697533,
518.8200073,0.4427648485,518.8200073,4.481842041,
518.9699707,0.412814796,518.9699707,4.368506908,
519.2600098,0.5640794635,519.2600098,4.305118084,
519.4099731,0.4458482862,519.4099731,4.413623333,
519.5499878,0.4994256794,519.5499878,4.143243313,
519.8499756,0.4388377666,519.8499756,4.224308491,
520,0.4102818966,520,4.293559074,
520.1400146,0.4082970917,520.1400146,4.185291767,
520.4400024,0.4081607163,520.4400024,4.004694939,
520.5900269,0.5016536117,520.5900269,4.150228024,
520.7399902,0.471390903,520.7399902,3.898548841,
521.039978,0.4041835964,521.039978,3.996356487,
521.1900024,0.4290111065,521.1900024,4.073319912,
521.3400269,0.4315260649,521.3400269,3.856388092,
521.6400146,0.3927950263,521.6400146,3.943472624,
521.789978,0.4046390355,521.789978,3.772820473,
521.9400024,0.4432511926,521.9400024,3.88601017,
522.2299805,0.3682850599,522.2299805,3.779453516,
522.3800049,0.3437994123,522.3800049,3.649884224,
522.5300293,0.4176172018,522.5300293,3.693438292,
522.8300171,0.3400910497,522.8300171,3.64281702,
522.9799805,0.3542577326,522.9799805,3.663872957,
523.1300049,0.4826162755,523.1300049,3.590553522,
523.4299927,0.3981956542,523.4299927,3.57054615,
523.5800171,0.4156329036,523.5800171,3.622340202,
523.7299805,0.4445968568,523.7299805,3.436846495,
524.0200195,0.3895068169,524.0200195,3.509574175,
524.1699829,0.3735595644,524.1699829,3.350361824,
524.3200073,0.38847363,524.3200073,3.373960733,
524.6199951,0.3231652379,524.6199951,3.314917326,
524.7700195,0.4451103806,524.7700195,3.207060575,
525.0700073,0.3127815127,525.0700073,3.291379452,
525.2199707,0.3648210168,525.2199707,3.150815487,
525.3699951,0.362768501,525.3699951,3.315807343,
525.5200195,0.4056037664,525.5200195,3.112723351,
525.8200073,0.3281895518,525.8200073,3.183571577,
525.9699707,0.3471148312,525.9699707,3.012234688,
526.2600098,0.3383943439,526.2600098,3.043898106,
526.4099731,0.355856359,526.4099731,2.976153612,
526.5599976,0.2975417972,526.5599976,3.069348812,
526.710022,0.3693524897,526.710022,3.08971262,
527.0100098,0.3113780022,527.0100098,2.865626574,
527.1599731,0.202086553,527.1599731,3.023576498,
527.460022,0.2530332506,527.460022,2.853227139,
527.6099854,0.2566638589,527.6099854,2.800017834,
527.7600098,0.2878904641,527.7600098,2.763847351,
528.0499878,0.3327494562,528.0499878,2.990769386,
528.2000122,0.2592819929,528.2000122,2.80785203,
528.3499756,0.2014479041,528.3499756,2.835538626,
528.6500244,0.3050640523,528.6500244,2.730717897,
528.7999878,0.3622083068,528.7999878,2.707949638,
528.9500122,0.3146276474,528.9500122,2.729718924,
529.25,0.3021471202,529.25,2.623047829,
529.4000244,0.3578940928,529.4000244,2.593298912,
529.5499878,0.2371901572,529.5499878,2.597959518,
529.8499756,0.270396024,529.8499756,2.518158674,
530,0.2622524798,530,2.554599047,
530.1400146,0.3019900322,530.1400146,2.576272964,
530.4400024,0.2971430123,530.4400024,2.575276136,
530.5800171,0.2343248874,530.5800171,2.400604725,
530.7299805,0.2922249436,530.7299805,2.541073084,
531.0200195,0.2716854513,531.0200195,2.6591959,
531.1699829,0.2859540582,531.1699829,2.379377127,
531.4699707,0.1981546879,531.4699707,2.262386084,
531.6099854,0.2252520025,531.6099854,2.289736748,
531.7600098,0.2859736383,531.7600098,2.226695538,
532.0499878,0.2524055541,532.0499878,2.254633427,
532.2000122,0.2772107422,532.2000122,2.226118088,
532.3499756,0.2508120537,532.3499756,2.262616634,
532.6400146,0.2539548874,532.6400146,2.238722563,
532.789978,0.2915433645,532.789978,2.208270788,
532.9400024,0.2003807127,532.9400024,2.336434126,
533.2299805,0.3108872771,533.2299805,2.136495352,
533.3800049,0.241800487,533.3800049,2.147212029,
533.5200195,0.2373768687,533.5200195,2.092116117,
533.8200073,0.2564150691,533.8200073,2.092987537,
533.9699707,0.2161521316,533.9699707,2.105406284,
534.2600098,0.2998107374,534.2600098,2.030986547,
534.4099731,0.2047349513,534.4099731,2.055887461,
534.5499878,0.2428711206,534.5499878,2.0890522,
534.8499756,0.260777235,534.8499756,1.949590087,
535,0.2162963897,535,2.006983519,
535.1400146,0.1751412004,535.1400146,2.021060228,
535.4400024,0.2086708844,535.4400024,1.872955322,
535.5800171,0.1796433181,535.5800171,1.93507719,
535.7299805,0.1753155738,535.7299805,1.859141946,
536.0200195,0.178425312,536.0200195,1.890959024,
536.1699829,0.1982566118,536.1699829,1.864581585,
536.4699707,0.1622657329,536.4699707,1.817941666,
536.6099854,0.2287893295,536.6099854,1.831877112,
536.7600098,0.156680882,536.7600098,1.912599206,
537.0499878,0.2534932494,537.0499878,1.788965583,
537.2000122,0.2037326396,537.2000122,1.731617808,
537.3499756,0.1237317473,537.3499756,1.816694856,
537.6400146,0.2040008903,537.6400146,1.728030562,
537.789978,0.1715679914,537.789978,1.667784691,
537.9400024,0.2602596283,537.9400024,1.643103123,
538.2299805,0.1808137894,538.2299805,1.687120438,
538.3800049,0.1579399556,538.3800049,1.6783216,
538.5200195,0.1794776618,538.5200195,1.715244532,
538.8200073,0.2094898969,538.8200073,1.575880885,
538.9699707,0.16706267,538.9699707,1.565338731,
539.2600098,0.1624045819,539.2600098,1.618410587,
539.4099731,0.216935873,539.4099731,1.595987201,
539.5499878,0.1441617608,539.5499878,1.542178869,
539.8499756,0.1256684065,539.8499756,1.643781424,
540,0.1621847451,540,1.518598199,
540.1400146,0.2102044672,540.1400146,1.567417622,
540.4400024,0.1619160473,540.4400024,1.524208546,
540.5800171,0.1351107955,540.5800171,1.465233445,
540.7299805,0.2063930333,540.7299805,1.549944401,
541.0200195,0.1947470307,541.0200195,1.517025113,
541.1699829,0.128231436,541.1699829,1.428081393,
541.4699707,0.1437203586,541.4699707,1.423873186,
541.6099854,0.1327985972,541.6099854,1.503305435,
541.7600098,0.1250098795,541.7600098,1.582710505,
542.0499878,0.2266183197,542.0499878,1.518380046,
542.2000122,0.2161836326,542.2000122,1.410863638,
542.3499756,0.1032324657,542.3499756,1.48363328,
542.6400146,0.1115932241,542.6400146,1.420152426,
542.789978,0.1365693808,542.789978,1.360821843,
542.9400024,0.1572059244,542.9400024,1.36186409,
543.2299805,0.05881468579,543.2299805,1.36551559,
543.3800049,0.1486777365,543.3800049,1.452632904,
543.5200195,0.1056524068,543.5200195,1.369508624,
543.8200073,0.1549376696,543.8200073,1.246621132,
543.9699707,0.1677897424,543.9699707,1.279767156,
544.2600098,0.1930707544,544.2600098,1.295809388,
544.4099731,0.1195306405,544.4099731,1.272651553,
544.5499878,0.138989076,544.5499878,1.267309666,
544.8499756,0.1409145296,544.8499756,1.264065862,
545,0.1148501188,545,1.244171739,
545.1400146,0.1661670953,545.1400146,1.271358252,
545.4400024,0.1167277321,545.4400024,1.153226137,
545.5800171,0.1446659118,545.5800171,1.148985147,
545.7299805,0.152278468,545.7299805,1.299714088,
546.0200195,0.08193208277,546.0200195,1.206280231,
546.1699829,0.1141357049,546.1699829,1.165091634,
546.4699707,0.1500346959,546.4699707,1.233060956,
546.6099854,0.131016627,546.6099854,1.143435597,
546.7600098,0.1517556161,546.7600098,1.06548965,
547.0499878,0.0976530686,547.0499878,1.159744024,
547.2000122,0.1197400987,547.2000122,1.116634727,
547.3499756,0.1003675908,547.3499756,1.100006223,
547.6400146,0.1229606271,547.6400146,1.217444539,
547.789978,0.05027588829,547.789978,1.073523998,
547.9400024,0.05728762224,547.9400024,1.1281811,
548.2299805,0.07521624863,548.2299805,1.063803196,
548.3800049,0.12591286,548.3800049,1.074402332,
548.5200195,0.09354829043,548.5200195,1.062980056,
548.8200073,0.1201459467,548.8200073,0.9446769953,
548.9699707,0.1169036105,548.9699707,1.100515842,
549.2600098,0.09365458786,549.2600098,0.9214786887,
549.4099731,0.1444669217,549.4099731,1.038131118,
549.5499878,0.1555393785,549.5499878,1.030442595,
549.8499756,0.006219330709,549.8499756,1.005282402,
550,0.0690555647,550,0.9960724115,
550.1400146,0.1501398236,550.1400146,1.03391099,
550.4400024,0.0645057261,550.4400024,0.9668558836,
550.5800171,0.1497015357,550.5800171,0.9894010425,
550.7299805,0.06832212955,550.7299805,0.974322319,
551.0200195,0.1669665873,551.0200195,1.073744893,
551.1699829,0.1751905233,551.1699829,1.05650115,
551.4699707,0.07480690628,551.4699707,0.935997963,
551.6099854,0.1232240349,551.6099854,0.9791448116,
551.7600098,0.1178126559,551.7600098,0.8476148844,
552.0499878,0.1435526162,552.0499878,0.8837634921,
552.2000122,0.1185913831,552.2000122,0.9386968613,
552.3499756,0.08635205775,552.3499756,0.8591486812,
552.6400146,0.144390732,552.6400146,0.9119140506,
552.789978,0.1298131198,552.789978,0.9494743943,
552.9400024,0.1551368982,552.9400024,0.9036921859,
553.2299805,0.1311557293,553.2299805,0.8792641163,
553.3800049,0.03706128523,553.3800049,0.8912769556,
553.5200195,0.0868518725,553.5200195,0.924836576,
553.8200073,0.1115753204,553.8200073,0.9053229094,
553.9699707,0.1322667897,553.9699707,0.9047754407,
554.2600098,0.09810774773,554.2600098,0.8456633687,
554.4099731,0.1425154656,554.4099731,0.8154216409,
554.5499878,0.06155247614,554.5499878,0.8398883939,
554.8499756,0.09250693768,554.8499756,0.7986316085,
555,0.08652550727,555,0.8285416961,
555.1400146,0.08782219887,555.1400146,0.9290879965,
555.4400024,0.1302939653,555.4400024,0.7862383127,
555.5800171,0.05698907748,555.5800171,0.7703146935,
555.7299805,0.08841007203,555.7299805,0.8152412772,
556.0200195,0.01237118524,556.0200195,0.8649809361,
556.1699829,0.1053486094,556.1699829,0.8021423221,
556.4699707,0.1879193038,556.4699707,0.7629317045,
556.6099854,0.1248353794,556.6099854,0.7048174739,
556.7600098,0.1111083701,556.7600098,0.7833921313,
557.0499878,0.07629268616,557.0499878,0.8154525161,
557.2000122,0.09063776582,557.2000122,0.7828274965,
557.3499756,0.04455278441,557.3499756,0.8073146343,
557.6400146,0.1338073909,557.6400146,0.7876583934,
557.789978,0.1282824278,557.789978,0.7213764191,
557.9400024,0.1523693502,557.9400024,0.7217976451,
558.2299805,0.08857563883,558.2299805,0.6610675454,
558.3800049,0.07029787451,558.3800049,0.6125941873,
558.5200195,0.08859974146,558.5200195,0.7376630902,
558.8200073,0.08729540557,558.8200073,0.6082724929,
558.9699707,0.03201823682,558.9699707,0.6929830313,
559.2600098,0.09497698396,559.2600098,0.6931262016,
559.4099731,0.1445504427,559.4099731,0.7107056975,
559.5499878,0.05100642145,559.5499878,0.7243410349,
559.8499756,0.119487837,559.8499756,0.6330075264,
560,0.04500681534,560,0.690921545,
560.1400146,0.08217030764,560.1400146,0.7097674012,
560.4400024,0.07606057078,560.4400024,0.6937437057,
560.5800171,0.08843967319,560.5800171,0.6820722222,
560.7299805,0.07579776645,560.7299805,0.5982231498,
561.0200195,0.03809741512,561.0200195,0.6200261712,
561.1699829,0.09370373189,561.1699829,0.6973500848,
561.4699707,0.07632810622,561.4699707,0.6009953618,
561.6099854,0.08368147165,561.6099854,0.6209492683,
561.7600098,0.1010152027,561.7600098,0.6989088058,
562.0499878,0.04528516904,562.0499878,0.6174764633,
562.2000122,0.1205316111,562.2000122,0.6580417156,
562.3499756,0.05770969391,562.3499756,0.5830644965,
562.6400146,0.08882347494,562.6400146,0.6307556033,
562.789978,0.06901744008,562.789978,0.5659415126,
562.9400024,0.04414927214,562.9400024,0.653619647,
563.2299805,0.1413363963,563.2299805,0.5784131289,
563.3800049,0.1424999684,563.3800049,0.5882948041,
563.5200195,0.05818501487,563.5200195,0.6125870347,
563.8200073,0.05655824021,563.8200073,0.5226413608,
563.9699707,0.05177926645,563.9699707,0.5240219235,
564.2600098,0.0623383075,564.2600098,0.5616224408,
564.4099731,0.07461433113,564.4099731,0.5304704309,
564.5499878,-0.01258209813,564.5499878,0.5970112681,
564.8499756,0.03144693747,564.8499756,0.4988885522,
565,0.0765941143,565,0.5504134297,
565.1400146,0.04370984063,565.1400146,0.6079874635,
565.4400024,0.01884599589,565.4400024,0.5305106044,
565.5800171,0.08709771931,565.5800171,0.5552262664,
565.7299805,0.06784971803,565.7299805,0.5135535002,
566.0200195,0.02501297556,566.0200195,0.567280829,
566.1699829,0.09900254756,566.1699829,0.5603182316,
566.4699707,0.0808467716,566.4699707,0.5784756541,
566.6099854,0.03119891323,566.6099854,0.6004803777,
566.7600098,0.01849785075,566.7600098,0.5395683646,
567.0499878,0.05561735108,567.0499878,0.5472583175,
567.2000122,0.06811145693,567.2000122,0.560418129,
567.3499756,0.1044200435,567.3499756,0.4783955216,
567.6400146,0.04402488098,567.6400146,0.5292026401,
567.789978,0.1173832193,567.789978,0.5470799804,
567.9400024,-0.01856435649,567.9400024,0.5497182608,
568.2299805,0.05617697164,568.2299805,0.524089396,
568.3800049,0.04353531823,568.3800049,0.5423093438,
568.5200195,0.06250976771,568.5200195,0.5159356594,
568.8200073,0.1185973063,568.8200073,0.4836309552,
568.9699707,0.1059645563,568.9699707,0.5151823759,
569.2600098,0.04998094216,569.2600098,0.5372213125,
569.4099731,0.01894812658,569.4099731,0.4960255027,
569.5499878,0.06240016222,569.5499878,0.4875361621,
569.8499756,0.04919716343,569.8499756,0.492562294,
570,0.08770500869,570,0.4883471429,
570.1400146,-0.006145639345,570.1400146,0.5422621369,
570.4400024,0.08574963361,570.4400024,0.5158184171,
570.5800171,0.04337265715,570.5800171,0.5401887894,
570.7299805,0.04921472073,570.7299805,0.4485324323,
571.0200195,0.07543800771,571.0200195,0.4549366832,
571.1699829,0.03703498095,571.1699829,0.4059227407,
571.4699707,0.1360695809,571.4699707,0.3831491172,
571.6099854,0.09263890982,571.6099854,0.4962459207,
571.7600098,0.1174644977,571.7600098,0.4987157881,
572.0499878,0.04419024661,572.0499878,0.4141488075,
572.2000122,0.02484595403,572.2000122,0.4752495289,
572.3499756,0.02487469278,572.3499756,0.4540959001,
572.6400146,-0.006216083653,572.6400146,0.4428062737,
572.789978,-0.006144506857,572.789978,0.4667474031,
572.9400024,0.05579596013,572.9400024,0.50179708,
573.2299805,0.06084131449,573.2299805,0.4804079533,
573.3800049,0.03697450086,573.3800049,0.5356920362,
573.5200195,0.04898868874,573.5200195,0.4518469274,
573.8200073,-0.0551450327,573.8200073,0.5354604125,
573.9699707,0.07400737703,573.9699707,0.4536032975,
574.2600098,0.0492577441,574.2600098,0.3972498178,
574.4099731,0.1404271424,574.4099731,0.4440913796,
574.5499878,0.03672015667,574.5499878,0.4698115289,
574.8499756,0.1426489353,574.8499756,0.428420186,
575,0.06800870597,575,0.4414902627,
575.1400146,0.01828521304,575.1400146,0.5190192461,
575.4400024,0.04299305379,575.4400024,0.3999606073,
575.5800171,0.08001773059,575.5800171,0.4602667093,
575.7299805,0.03715791553,575.7299805,0.4111816883,
576.0200195,0.0310808029,576.0200195,0.4723865688,
576.1699829,0.06843689829,576.1699829,0.5251459479,
576.4699707,0.03672712296,576.4699707,0.4797903895,
576.6099854,-0.02450709976,576.6099854,0.3821516931,
576.7600098,0.08547582477,576.7600098,0.4719178379,
577.0499878,0.07507085055,577.0499878,0.3521648645,
577.2000122,0.04318534955,577.2000122,0.4675365686,
577.3499756,0.01251580101,577.3499756,0.3359927833,
577.6400146,0.06889338791,577.6400146,0.3570153415,
577.789978,0.08773083985,577.789978,0.4154396951,
577.9400024,0.04346746206,577.9400024,0.3511343896,
578.2299805,0.08655385673,578.2299805,0.438703686,
578.3800049,0,578.3800049,0.4224136472,
578.5200195,-0.04391467944,578.5200195,0.3378356993,
578.8200073,0.08864125609,578.8200073,0.2739759386,
578.9699707,0.06943173707,578.9699707,0.4518535137,
579.2600098,0.06924161315,579.2600098,0.4093377888,
579.4099731,0.02557152323,579.4099731,0.3602283597,
579.5499878,0.02516609617,579.5499878,0.3991280794,
579.8499756,0.006253165659,579.8499756,0.3658982813,
580,0.06250703335,580,0.381923914,
580.1400146,0.01271568984,580.1400146,0.5186305642,
580.4299927,0.01880264841,580.4299927,0.4122886956,
580.5700073,0.006374623626,580.5700073,0.3214161992,
580.7199707,0.05033789575,580.7199707,0.4008980095,
581.0100098,0.04495017231,581.0100098,0.3374523222,
581.1500244,0.07126983255,581.1500244,0.427136153,
581.4400024,0.08802761137,581.4400024,0.3996704221,
581.5900269,0.09517344087,581.5900269,0.3169185519,
581.7299805,0.01250453293,581.7299805,0.2744119763,
582.0200195,0.03127482161,582.0200195,0.3741803169,
582.1699829,0.018781811,582.1699829,0.3516846895,
582.460022,0.1419904381,582.460022,0.3417380154,
582.5999756,0.07545935363,582.5999756,0.2647887766,
582.75,0.02541392855,582.75,0.3619300127,
583.039978,-0.00632895343,583.039978,0.4076589942,
583.1799927,-0.01270712633,583.1799927,0.3799275756,
583.3300171,0.05021183193,583.3300171,0.3367969394,
583.6199951,0.03836979344,583.6199951,0.4471032917,
583.7600098,0.07628153265,583.7600098,0.2684195042,
584.0499878,0.006365129258,584.0499878,0.356428206,
584.2000122,0.0705698207,584.2000122,0.4100652337,
584.3400269,0.05102756619,584.3400269,0.3176064193,
584.6300049,-0.006225525867,584.6300049,0.3084282875,
584.7800293,0.08108731359,584.7800293,0.3098069429,
585.0700073,-0.01254469063,585.0700073,0.3177064061,
585.210022,0.0682035163,585.210022,0.3747362196,
585.3599854,0.04959333315,585.3599854,0.3086280823,
585.6500244,0.04936900362,585.6500244,0.257594198,
585.789978,0.08837155998,585.789978,0.2765966952,
585.9400024,0.03728977591,585.9400024,0.3201526403,
586.2299805,0.03132930398,586.2299805,0.3029365838,
586.3699951,0.07385887951,586.3699951,0.2532302737,
586.5200195,-0.01235735044,586.5200195,0.3436337113,
586.8099976,0.01251666248,586.8099976,0.3560630679,
586.9500122,0.06882011145,586.9500122,0.3836685121,
587.2399902,0.09209516644,587.2399902,0.3344777226,
587.3900146,0.01855310425,587.3900146,0.3679152131,
587.5300293,0.04963856936,587.5300293,0.3604401052,
587.8200073,0.06826362014,587.8200073,0.3690717816,
587.9699707,0.03138692304,587.9699707,0.3113087714,
588.2600098,0.04362240434,588.2600098,0.3279081285,
588.4000244,0.02467155829,588.4000244,0.3482792377,
588.5499878,0.06221497431,588.5499878,0.3308898211,
588.8400269,0.08006799966,588.8400269,0.3816497624,
588.9799805,0.06232238188,588.9799805,0.2710812986,
589.1300049,0.01239165105,589.1300049,0.3795978725,
589.4199829,0.006224131212,589.4199829,0.362798512,
589.5599976,0.04925683513,589.5599976,0.3184409142,
589.8499756,0.01244547404,589.8499756,0.3187280893,
590,0.06792765111,590,0.3135057092,
590.1400146,0.06319753826,590.1400146,0.3190586567,
590.4299927,0.0879535079,590.4299927,0.3426395953,
590.5700073,0.03079784848,590.5700073,0.2353171855,
590.7199707,0.09356520325,590.7199707,0.3820665777,
591.0100098,0.02506344207,591.0100098,0.2971288264,
591.1500244,0.0185912773,591.1500244,0.3278647065,
591.4400024,0.03071894683,591.4400024,0.316752404,
591.5900269,0.04298407584,591.5900269,0.3487811685,
591.7299805,-0.03112084977,591.7299805,0.2942464948,
592.0200195,0.01235101651,592.0200195,0.2342350334,
592.1699829,0.04905026406,592.1699829,0.3286957741,
592.460022,0.006353603676,592.460022,0.3111110926,
592.5999756,0.0121746324,592.5999756,0.2984544039,
592.75,0.06823313981,592.75,0.2785004079,
593.039978,0.04974814877,593.039978,0.2941872478,
593.1799927,0.0562528111,593.1799927,0.2792280316,
593.3300171,0.1122852564,593.3300171,0.3253314495,
593.6199951,0.05600916222,593.6199951,0.2600417435,
593.7600098,0.0862743631,593.7600098,0.3551534712,
594.0499878,0.03077926859,594.0499878,0.3001312912,
594.2000122,0.06855077296,594.2000122,0.2842468917,
594.3400269,0.06875386834,594.3400269,0.3076304793,
594.6300049,-0.01880700886,594.6300049,0.1810033917,
594.7800293,0.05005098879,594.7800293,0.2077994049,
595.0700073,0.06924161315,595.0700073,0.311409682,
595.210022,0.06698984653,595.210022,0.2644854188,
595.3599854,0.04352800921,595.3599854,0.3217172027,
595.6500244,-0.01230791956,595.6500244,0.2639102638,
595.789978,-0.00614144979,595.789978,0.2630346715,
595.9400024,0.0559659712,595.9400024,0.2511996329,
596.2299805,0.09309600294,596.2299805,0.2938865125,
596.3699951,0.01857090741,596.3699951,0.2471623868,
596.5200195,0.02465073019,596.5200195,0.3217482567,
596.8099976,0.0566094704,596.8099976,0.2934534252,
596.9500122,0.04311406985,596.9500122,0.3223115206,
597.2399902,0.03707502782,597.2399902,0.3097619414,
597.3900146,0.06274155527,597.3900146,0.2796820104,
597.5300293,0.06182647496,597.5300293,0.1741800606,
597.8200073,0.006142392755,597.8200073,0.3083584011,
597.9699707,0.03717702627,597.9699707,0.2366465926,
598.2600098,0.0694308579,598.2600098,0.2502582669,
598.4000244,0.0615740791,598.4000244,0.2653069198,
598.5499878,0.04978406429,598.5499878,0.350754112,
598.8400269,0.04307374358,598.8400269,0.2386547327,
598.9799805,0.09267497063,598.9799805,0.2526902258,
599.1300049,0.01857079193,599.1300049,0.2907160521,
599.4199829,0.08069972694,599.4199829,0.2694066763,
599.5599976,0.06971953809,599.5599976,0.2717734873,
599.8499756,0.06911110878,599.8499756,0.3011642694,
600,0.04408421367,600,0.2369896024,

Pyranine in Acetonitrile,
Pyranine in Acetonitrile
Collection Time: 2/1/2020 3:15:49 PM
Operator Name  :
Scan Software Version: 1.2(147)
Parameter List :
Instrument                        Cary Eclipse
Instrument Serial Number          MY16370002
Data mode                         Fluorescence
Scan mode                         Emission
X Mode                            Wavelength (nm)
Start (nm)                        380.00
Stop (nm)                         600.00
Ex. Wavelength (nm)               366.00
Ex. Slit (nm)                     5
Em. Slit (nm)                     1.5
Scan rate (nm/min)                60.00
Data interval (nm)                0.2000
Averaging Time (s)                0.2000
Excitation filter                 Auto
Emission filter                   Open
PMT voltage (V)                   Medium
Corrected spectra                 OFF
Method Log     :
Method Name    : Default
Date/Time stamp: 2/1/2020 3:14:29 PM
Method Modifications:
Em. Slit Width (nm): Changed: 2/1/2020 3:15:36 PM, Old:5, New:1.5
Scan Control Changed: 2/1/2020 3:15:36 PM, Old:Medium, New:Manual
Ave. time (s): Changed: 2/1/2020 3:15:36 PM, Old:0.10000, New:0.20000
Excitation Wavelength Changed: 2/1/2020 3:15:36 PM, Old: 350.00, New: 366.00
Data interval: Changed: 2/1/2020 3:15:36 PM, Old:   1.00, New:   0.20
Emission Wavelength Changed: 2/1/2020 3:15:36 PM, Old: 400.00, New: 380.00
End Method Modifications

Pyranine in Acetonitrile,
Pyranine in Acetonitrile
Collection Time: 2/1/2020 3:23:09 PM
Operator Name  :
Scan Software Version: 1.2(147)
Parameter List :
Instrument                        Cary Eclipse
Instrument Serial Number          MY16370002
Data mode                         Fluorescence
Scan mode                         Emission
X Mode                            Wavelength (nm)
Start (nm)                        380.00
Stop (nm)                         600.00
Ex. Wavelength (nm)               366.00
Ex. Slit (nm)                     5
Em. Slit (nm)                     2.5
Scan rate (nm/min)                60.00
Data interval (nm)                0.2000
Averaging Time (s)                0.2000
Excitation filter                 Auto
Emission filter                   Open
PMT voltage (V)                   Medium
Corrected spectra                 OFF
Method Log     :
Method Name    : Default
Date/Time stamp: 2/1/2020 3:14:29 PM
Method Modifications:
Em. Slit Width (nm): Changed: 2/1/2020 3:15:36 PM, Old:5, New:1.5
Scan Control Changed: 2/1/2020 3:15:36 PM, Old:Medium, New:Manual
Ave. time (s): Changed: 2/1/2020 3:15:36 PM, Old:0.10000, New:0.20000
Excitation Wavelength Changed: 2/1/2020 3:15:36 PM, Old: 350.00, New: 366.00
Data interval: Changed: 2/1/2020 3:15:36 PM, Old:   1.00, New:   0.20
Emission Wavelength Changed: 2/1/2020 3:15:36 PM, Old: 400.00, New: 380.00
Em. Slit Width (nm): Changed: 2/1/2020 3:22:58 PM, Old:1.5, New:2.5
End Method Modifications

