Pyranine in 1-butanol,,Pyranine in 1-butanol,,Pyranine in 1-butanol,,Pyranine in 1-butanol,,Pyranine in acetonitrile,,Pyranine in Water,,Pyranine in Water,,
Wavelength (nm),Intensity (a.u.),Wavelength (nm),Intensity (a.u.),Wavelength (nm),Intensity (a.u.),Wavelength (nm),Intensity (a.u.),Wavelength (nm),Intensity (a.u.),Wavelength (nm),Intensity (a.u.),Wavelength (nm),Intensity (a.u.),
380,79.45265961,380,0.4491810203,380,5.194143295,380,5.351608276,380,5.791408062,380,26.06520653,380,2.437428951,
381.0599976,91.53988647,381.0599976,0.7885567546,381.0599976,7.722970963,380.1499939,5.456592083,380.1499939,5.671016216,380.1499939,27.26087952,380.1499939,2.602026701,
381.9599915,104.8462219,381.9599915,1.122625232,381.9599915,10.29854488,380.4500122,6.19893074,380.4500122,6.153628826,380.4500122,31.67035484,380.4500122,3.10631299,
383.0299988,113.7044373,383.0299988,1.318765283,383.0299988,11.27970219,380.6000061,6.562609673,380.6000061,6.444192886,380.6000061,34.8697319,380.6000061,3.35759306,
383.9299927,115.2506866,383.9299927,1.243936539,383.9299927,11.09582138,380.75,6.935265064,380.75,6.733942986,380.75,37.3866806,380.75,3.528876305,
385,111.2473068,385,1.173617601,385,10.13050175,381.0599976,7.590661526,381.0599976,6.954314709,381.0599976,41.31173325,381.0599976,3.959247351,
386.0599976,103.2841263,386.0599976,1.032586694,386.0599976,8.711202621,381.2099915,7.909421921,381.2099915,7.384880066,381.2099915,43.00869751,381.2099915,4.232454777,
386.9599915,93.34939575,386.9599915,0.7184684277,386.9599915,7.465297222,381.3599854,8.112366676,381.3599854,7.320075989,381.3599854,45.18830109,381.3599854,4.664196491,
388.0299988,83.91979218,388.0299988,0.732619524,388.0299988,6.580016136,381.6600037,9.009076118,381.6600037,7.762075901,381.6600037,51.48134613,381.6600037,5.25149107,
388.9299927,78.46688843,388.9299927,0.6991122961,388.9299927,6.257103443,381.8099976,9.769731522,381.8099976,8.060618401,381.8099976,55.79801178,381.8099976,5.808638573,
390,74.85409546,390,0.5306614637,390,5.766727924,381.9599915,10.07553577,381.9599915,8.25390625,381.9599915,58.96691895,381.9599915,6.270402431,
391.0599976,74.50444031,391.0599976,0.5997920036,391.0599976,6.002347946,382.269989,10.49762535,382.269989,8.466532707,382.269989,62.50782394,382.269989,6.792307854,
391.9599915,76.01389313,391.9599915,0.7303543687,391.9599915,5.845684052,382.4200134,10.79303455,382.4200134,8.708282471,382.4200134,63.61819077,382.4200134,6.823033333,
393.0299988,79.83796692,393.0299988,0.6358680129,393.0299988,6.163991451,382.5700073,10.84835529,382.5700073,8.554953575,382.5700073,65.82866669,382.5700073,7.174703121,
393.9299927,84.09989929,393.9299927,0.6571329832,393.9299927,6.675382137,382.7200012,11.08078671,382.7200012,8.968206406,382.7200012,66.55023956,382.7200012,7.163100719,
395,91.92453766,395,0.7281937599,395,6.955734253,383.0299988,11.35426903,383.0299988,9.118281364,383.0299988,70.52960968,383.0299988,7.939816475,
396.0599976,102.3871231,396.0599976,0.7152319551,396.0599976,7.658888817,383.1799927,11.42804432,383.1799927,9.158612251,383.1799927,70.61317444,383.1799927,7.68039465,
396.9599915,117.3900299,396.9599915,0.8213835359,396.9599915,8.531622887,383.3299866,11.47311497,383.3299866,9.342513084,383.3299866,70.85005951,383.3299866,8.080492973,
398.0299988,144.8120117,398.0299988,0.9803310037,398.0299988,10.12598991,383.6300049,11.32257271,383.6300049,9.676712036,383.6300049,71.17046356,383.6300049,8.083621979,
398.9299927,179.8704987,398.9299927,1.225581288,398.9299927,12.73074436,383.7799988,11.41797543,383.7799988,9.472732544,383.7799988,72.24649811,383.7799988,8.015474319,
400,227.4676514,400,1.631855845,400,15.90265369,383.9299927,11.20141888,383.9299927,9.855641365,383.9299927,71.18146515,383.9299927,7.906860828,
401.0599976,291.8146057,401.0599976,2.118996859,401.0599976,20.20506096,384.2399902,10.86460495,384.2399902,10.24504375,384.2399902,70.06331635,384.2399902,7.538603306,
401.9599915,370.2401428,401.9599915,2.65420413,401.9599915,26.09560585,384.3900146,10.69084644,384.3900146,10.35767078,384.3900146,68.80752563,384.3900146,7.556055546,
403.0299988,482.0880127,403.0299988,3.450092554,403.0299988,33.63030624,384.5400085,10.52279186,384.5400085,10.58102322,384.5400085,68.19104004,384.5400085,7.652650833,
403.9299927,617.4642334,403.9299927,4.390365601,403.9299927,42.88879395,384.8399963,10.41224575,384.8399963,10.51733589,384.8399963,66.59697723,384.8399963,7.229230881,
405,792.4719849,405,5.807504177,405,55.37176132,385,10.17199326,385,10.37547207,385,65.30252075,385,7.022734642,
406.0599976,1000,406.0599976,7.326032162,406.0599976,72.25949097,385.1499939,9.889866829,385.1499939,11.06883907,385.1499939,64.40609741,385.1499939,6.97764349,
406.9599915,1000,406.9599915,8.863111496,406.9599915,87.81344604,385.4500122,9.461483955,385.4500122,11.0945406,385.4500122,60.53080368,385.4500122,6.664284706,
408.0299988,1000,408.0299988,11.14775562,408.0299988,110.1522217,385.6000061,9.186861992,385.6000061,11.25919056,385.6000061,58.87897873,385.6000061,6.35243082,
408.9299927,1000,408.9299927,13.54143238,408.9299927,133.5381317,385.75,8.953619003,385.75,11.3270731,385.75,57.87013245,385.75,6.161256313,
410,1000,410,16.25201035,410,161.4522552,386.0599976,8.66904068,386.0599976,11.84879875,386.0599976,55.95912552,386.0599976,6.031615257,
411.0599976,1000,411.0599976,20.21684647,411.0599976,190.1709747,386.2099915,8.681702614,386.2099915,11.94692135,386.2099915,54.39525223,386.2099915,6.047357082,
411.9599915,1000,411.9599915,22.17282295,411.9599915,214.2578278,386.3599854,8.417154312,386.3599854,12.07950783,386.3599854,53.47754288,386.3599854,5.543102741,
413.0299988,1000,413.0299988,25.24200439,413.0299988,242.2361145,386.6600037,7.863735676,386.6600037,12.68115902,386.6600037,48.90187073,386.6600037,5.176810741,
413.9299927,1000,413.9299927,27.78322411,413.9299927,264.0737305,386.8099976,7.660959244,386.8099976,13.38977623,386.8099976,47.53789902,386.8099976,5.121331215,
415,1000,415,30.88396072,415,291.9982605,386.9599915,7.494869232,386.9599915,13.5831728,386.9599915,46.30508804,386.9599915,4.948045731,
416.0599976,1000,416.0599976,33.48456573,416.0599976,315.282959,387.269989,7.347485542,387.269989,13.44056892,387.269989,45.39888,387.269989,4.655874252,
416.9599915,1000,416.9599915,34.81505203,416.9599915,331.8327637,387.4200134,7.086277485,387.4200134,14.17800426,387.4200134,44.14994431,387.4200134,4.69421196,
418.0299988,1000,418.0299988,36.5464325,418.0299988,347.8524475,387.5700073,6.941384792,387.5700073,14.6210804,387.5700073,42.35991669,387.5700073,4.802793503,
418.9299927,1000,418.9299927,37.77078629,418.9299927,355.1693726,387.7200012,6.846654892,387.7200012,14.7894125,387.7200012,40.55605316,387.7200012,4.345966339,
420,1000,420,38.77910614,420,365.8580017,388.0299988,6.442166328,388.0299988,15.86552906,388.0299988,38.92681122,388.0299988,4.051157951,
421.0599976,1000,421.0599976,39.30174255,421.0599976,371.4949341,388.1799927,6.526640892,388.1799927,16.06139565,388.1799927,38.56450653,388.1799927,3.980876446,
421.9599915,1000,421.9599915,39.87239838,421.9599915,373.6659241,388.3299866,6.492385387,388.3299866,16.86968422,388.3299866,37.71578598,388.3299866,3.932605505,
423.0299988,1000,423.0299988,39.44053268,423.0299988,373.5794983,388.6300049,6.340746403,388.6300049,17.40384674,388.6300049,35.57143402,388.6300049,3.814891338,
423.9299927,1000,423.9299927,39.27034378,423.9299927,372.5244141,388.7799988,6.279276371,388.7799988,18.43643761,388.7799988,35.44620514,388.7799988,3.820099831,
425,1000,425,38.90945435,425,366.5700073,388.9299927,6.172187805,388.9299927,19.14185905,388.9299927,34.27165222,388.9299927,3.604953527,
426.0599976,1000,426.0599976,37.73608398,426.0599976,362.0382385,389.2399902,6.140172005,389.2399902,21.27325439,389.2399902,32.45451736,389.2399902,3.489434004,
426.9599915,1000,426.9599915,37.56386185,426.9599915,353.052124,389.3900146,6.114361763,389.3900146,21.8019619,389.3900146,32.46320724,389.3900146,3.408021927,
428.0299988,1000,428.0299988,36.9174118,428.0299988,346.5808105,389.5400085,6.025879383,389.5400085,22.29097939,389.5400085,32.48435593,389.5400085,3.34797287,
428.9299927,1000,428.9299927,35.94569016,428.9299927,341.1760254,389.8399963,5.917174339,389.8399963,24.08694458,389.8399963,31.5183506,389.8399963,3.32376194,
430,1000,430,35.52730942,430,334.9926758,390,5.926739216,390,25.07338715,390,30.22735596,390,3.309393883,
431.0599976,1000,431.0599976,34.79203415,431.0599976,330.0230408,390.1499939,5.933024406,390.1499939,26.77119637,390.1499939,30.2240715,390.1499939,3.266787529,
431.9599915,1000,431.9599915,33.87486267,431.9599915,323.4034119,390.4500122,5.866428375,390.4500122,30.31714058,390.4500122,29.32888222,390.4500122,3.112422228,
433.0299988,1000,433.0299988,33.65790939,433.0299988,318.6670837,390.6000061,5.860577583,390.6000061,31.82947922,390.6000061,28.73786926,390.6000061,3.057585478,
433.9299927,1000,433.9299927,33.60323334,433.9299927,315.0963745,390.75,5.965564728,390.75,33.03580093,390.75,29.21438789,390.75,3.05580616,
435,1000,435,33.14935303,435,312.15625,391.0599976,5.900902271,391.0599976,35.7621727,391.0599976,28.1761055,391.0599976,2.90387845,
436.0599976,1000,436.0599976,32.4483757,436.0599976,309.0336914,391.2099915,5.78249979,391.2099915,38.22666168,391.2099915,28.43679428,391.2099915,3.102178335,
436.9599915,1000,436.9599915,32.49531937,436.9599915,307.4362488,391.3599854,5.992349625,391.3599854,41.88817215,391.3599854,27.51902771,391.3599854,2.907685757,
438.0299988,1000,438.0299988,32.63996124,438.0299988,306.8878479,391.6600037,6.036433697,391.6600037,50.84666443,391.6600037,27.03636932,391.6600037,2.983630419,
438.9299927,1000,438.9299927,31.96306992,438.9299927,304.5878906,391.8099976,6.097681046,391.8099976,52.73813248,391.8099976,27.10296631,391.8099976,2.700932503,
440,1000,440,31.36750031,440,301.8528137,391.9599915,6.083631992,391.9599915,55.89099884,391.9599915,26.61301804,391.9599915,2.808758736,
441.0400085,1000,441.0400085,31.2089386,441.0400085,298.9370117,392.269989,6.132117748,392.269989,62.35325623,392.269989,26.67538834,392.269989,2.829834938,
441.9400024,1000,441.9400024,30.83531761,441.9400024,294.5302734,392.4200134,6.238350868,392.4200134,65.88988495,392.4200134,27.08418465,392.4200134,2.889134169,
442.980011,1000,442.980011,30.90679169,442.980011,290.9211731,392.5700073,6.313597202,392.5700073,72.72714996,392.5700073,26.44756126,392.5700073,2.794825554,
444.019989,1000,444.019989,30.33711433,444.019989,286.8822327,392.7200012,6.300441742,392.7200012,80.30922699,392.7200012,26.16096497,392.7200012,2.830669403,
445.0700073,1000,445.0700073,29.76716805,445.0700073,279.4026489,393.0299988,6.265281677,393.0299988,90.64745331,393.0299988,25.73016357,393.0299988,2.843784332,
445.9700012,1000,445.9700012,28.99965286,445.9700012,274.9854126,393.1799927,6.500993252,393.1799927,93.98621368,393.1799927,26.08101845,393.1799927,2.665261745,
447.0100098,1000,447.0100098,28.49010277,447.0100098,269.9072876,393.3299866,6.48944664,393.3299866,99.40131378,393.3299866,25.70533752,393.3299866,2.780836105,
448.0499878,1000,448.0499878,27.89147758,448.0499878,262.2956848,393.6300049,6.560709953,393.6300049,114.2951126,393.6300049,25.5897274,393.6300049,2.819997549,
448.9500122,1000,448.9500122,26.5669384,448.9500122,253.6828461,393.7799988,6.631859303,393.7799988,125.1074677,393.7799988,25.58090782,393.7799988,2.614608049,
450,1000,450,25.90973473,450,244.8249054,393.9299927,6.815750122,393.9299927,136.6051331,393.9299927,25.34314156,393.9299927,2.801453829,
451.0599976,1000,451.0599976,24.41830826,451.0599976,235.6751709,394.2399902,6.951180935,394.2399902,152.2511444,394.2399902,25.04748726,394.2399902,2.557208061,
451.9599915,1000,451.9599915,23.72399712,451.9599915,228.2381897,394.3900146,6.736727238,394.3900146,157.5164185,394.3900146,25.58415413,394.3900146,2.641975164,
,,453.0299988,23.48779106,453.0299988,220.8631439,394.5400085,6.987595081,394.5400085,164.1049347,394.5400085,24.76640892,394.5400085,2.592711449,
,,453.9299927,22.95586967,453.9299927,214.6210938,394.8399963,7.124140263,394.8399963,182.9728088,394.8399963,24.64182281,394.8399963,2.773548126,
,,455,21.66137695,455,205.3427429,395,7.240935802,395,195.6448669,395,24.65702057,395,2.696013451,
,,456.0599976,21.16147232,456.0599976,197.7223358,395.1499939,7.09680748,395.1499939,215.3248749,395.1499939,24.73974991,395.1499939,2.526592493,
,,456.9599915,20.27959061,456.9599915,189.4608154,395.4500122,7.416368961,395.4500122,238.2384949,395.4500122,23.99973106,395.4500122,2.528381824,
,,458.0299988,19.4156971,458.0299988,183.4806976,395.6000061,7.485569954,395.6000061,247.3353577,395.6000061,24.03211594,395.6000061,2.540268183,
,,458.9299927,18.61094856,458.9299927,176.7460632,395.75,7.58306694,395.75,258.1210632,395.75,24.04340172,395.75,2.581463337,
,,460,17.8196125,460,169.1925659,396.0599976,7.694871426,396.0599976,282.8056641,396.0599976,23.76272392,396.0599976,2.646567106,
,,461.0400085,16.94839859,461.0400085,163.3061829,396.2099915,7.839934826,396.2099915,300.5145874,396.2099915,23.56760597,396.2099915,2.522891521,
,,461.9400024,16.81656456,461.9400024,157.7410278,396.3599854,8.173851013,396.3599854,326.6641541,396.3599854,23.64740944,396.3599854,2.696296692,
,,462.980011,15.92434406,462.980011,151.2496796,396.6600037,8.334953308,396.6600037,353.6213989,396.6600037,23.1961174,396.6600037,2.41913414,
,,464.019989,15.59974003,464.019989,145.5115509,396.8099976,8.479232788,396.8099976,365.4830933,396.8099976,23.68136978,396.8099976,2.517508984,
,,465.0700073,14.90708733,465.0700073,141.2668457,396.9599915,8.720762253,396.9599915,378.6054382,396.9599915,23.58356094,396.9599915,2.451451063,
,,465.9700012,14.47690487,465.9700012,137.8395386,397.269989,9.024181366,397.269989,406.7981567,397.269989,23.64400482,397.269989,2.493294716,
,,467.0100098,14.18319225,467.0100098,132.4719849,397.4200134,9.265805244,397.4200134,426.5286255,397.4200134,23.39136124,397.4200134,2.351195812,
,,468.0499878,13.49679375,468.0499878,128.6042633,397.5700073,9.672483444,397.5700073,449.925293,397.5700073,23.35101318,397.5700073,2.504560947,
,,468.9500122,13.28525352,468.9500122,124.7057648,397.7200012,9.897023201,397.7200012,462.8614807,397.7200012,23.9281311,397.7200012,2.573874474,
,,470,12.71121407,470,120.6365814,398.0299988,10.36998463,398.0299988,485.7270203,398.0299988,23.9585743,398.0299988,2.433918476,
,,471.0400085,12.35214806,471.0400085,115.8238297,398.1799927,10.40236855,398.1799927,497.3345032,398.1799927,24.26916313,398.1799927,2.443688869,
,,471.9400024,11.79874802,471.9400024,113.3264694,398.3299866,10.68976688,398.3299866,510.0774841,398.3299866,24.46872711,398.3299866,2.555014133,
,,472.980011,11.42957783,472.980011,110.2863083,398.6300049,11.62912655,398.6300049,546.5077515,398.6300049,25.63857651,398.6300049,2.732102394,
,,474.019989,11.15738964,474.019989,105.0105133,398.7799988,12.303936,398.7799988,565.1121216,398.7799988,25.77209854,398.7799988,2.810134172,
,,475.0700073,10.72698784,475.0700073,101.106163,398.9299927,12.59208679,398.9299927,577.336731,398.9299927,26.10299873,398.9299927,2.743954659,
,,475.9700012,10.52294254,475.9700012,98.31623077,399.2399902,13.26298714,399.2399902,594.0284424,399.2399902,26.98503685,399.2399902,2.818230629,
,,477.0100098,10.11254215,477.0100098,94.35270691,399.3900146,13.40769386,399.3900146,601.6199951,399.3900146,27.26935005,399.3900146,2.756388426,
,,478.0499878,9.814069748,478.0499878,91.493927,399.5400085,13.92351818,399.5400085,610.1650391,399.5400085,27.63925934,399.5400085,2.934463501,
,,478.9500122,9.117109299,478.9500122,87.04501343,399.8399963,15.20249081,399.8399963,635.4540405,399.8399963,28.97270393,399.8399963,3.103337288,
,,480,8.693965912,480,84.66819,400,15.93444538,400,653.2070313,400,29.34888458,400,3.070938587,
,,481.0400085,8.495030403,481.0400085,81.12729645,400.1499939,16.57294655,400.1499939,661.5353394,400.1499939,30.48709679,400.1499939,3.154354811,
,,481.9400024,8.176837921,481.9400024,77.38141632,400.4500122,17.74213028,400.4500122,673.9840088,400.4500122,30.93075371,400.4500122,3.260998011,
,,482.980011,7.866193771,482.980011,73.820755,400.6000061,18.02898216,400.6000061,680.7217407,400.6000061,31.47852707,400.6000061,3.340407848,
,,484.019989,7.396054745,484.019989,70.78827667,400.75,18.74894524,400.75,685.5151978,400.75,31.71767616,400.75,3.377337217,
,,485.0700073,6.894598484,485.0700073,67.45392609,401.0599976,20.40539551,401.0599976,702.4307251,401.0599976,32.94031525,401.0599976,3.515244007,
,,485.9700012,6.905372143,485.9700012,63.42844009,401.2099915,21.85844231,401.2099915,712.9110107,401.2099915,34.24092865,401.2099915,3.380162001,
,,487.0100098,6.368256092,487.0100098,60.4701004,401.3599854,22.93406487,401.3599854,719.9377441,401.3599854,34.66921997,401.3599854,3.741593838,
,,488.0499878,5.799937248,488.0499878,57.49811935,401.6600037,24.21236801,401.6600037,725.8131714,401.6600037,35.04469681,401.6600037,3.811090469,
,,488.9500122,5.776608467,488.9500122,55.17134094,401.8099976,25.03133011,401.8099976,729.4729004,401.8099976,35.34492493,401.8099976,3.686756372,
,,490,5.360019684,490,52.75686646,401.9599915,25.96144867,401.9599915,734.4543457,401.9599915,35.60255432,401.9599915,3.72371769,
,,491.0400085,5.279380322,491.0400085,50.20933914,402.269989,28.26675797,402.269989,741.6547241,402.269989,36.59391403,402.269989,3.966570854,
,,491.9400024,5.05714941,491.9400024,48.32448578,402.4200134,30.01056671,402.4200134,743.1692505,402.4200134,36.62308884,402.4200134,4.071717262,
,,492.980011,4.649290085,492.980011,45.33219147,402.5700073,31.07711411,402.5700073,749.4144287,402.5700073,36.33688354,402.5700073,3.882931948,
,,494.019989,4.458578587,494.019989,43.5052681,402.7200012,32.03161621,402.7200012,746.1743774,402.7200012,36.67084503,402.7200012,3.897281885,
,,495.0700073,4.528628349,495.0700073,41.53118515,403.0299988,33.78160477,403.0299988,748.7341919,403.0299988,36.75235748,403.0299988,4.046268463,
,,495.9700012,4.225068092,495.9700012,39.88931656,403.1799927,34.87651062,403.1799927,746.2288818,403.1799927,36.84190369,403.1799927,3.948416948,
,,497.0100098,4.004698277,497.0100098,37.32414627,403.3299866,36.55804443,403.3299866,745.031189,403.3299866,36.85774231,403.3299866,3.919217348,
,,498.0499878,3.744410515,498.0499878,36.20981979,403.6300049,40.89715576,403.6300049,742.973938,403.6300049,36.83216858,403.6300049,3.91415,
,,498.9500122,3.545128822,498.9500122,34.90858078,403.7799988,41.7420845,403.7799988,743.7018433,403.7799988,36.50426102,403.7799988,3.823308468,
,,500,3.419139624,500,33.02745438,403.9299927,43.10003281,403.9299927,740.0999756,403.9299927,35.95013046,403.9299927,3.953312159,
,,501.0400085,3.363098621,501.0400085,31.14415169,404.2399902,45.75952911,404.2399902,738.0857544,404.2399902,35.85299301,404.2399902,3.88935256,
,,501.9400024,3.379380465,501.9400024,31.06431961,404.3900146,47.18976593,404.3900146,736.4215698,404.3900146,35.99491882,404.3900146,4.037378788,
,,502.980011,3.040997028,502.980011,28.98361015,404.5400085,48.98601913,404.5400085,733.4216919,404.5400085,35.31283188,404.5400085,3.753192902,
,,504.019989,2.931981802,504.019989,27.99977112,404.8399963,54.08816147,404.8399963,724.9389038,404.8399963,34.17562866,404.8399963,3.732555389,
,,505.0700073,2.719675541,505.0700073,26.59075356,405,56.00933456,405,719.9352417,405,33.98610306,405,3.558125496,
,,505.9700012,2.90668726,505.9700012,25.48184586,405.1499939,57.86981583,405.1499939,717.1646729,405.1499939,33.80279922,405.1499939,3.567996025,
,,507.0100098,2.585881472,507.0100098,24.46041489,405.4500122,60.98176956,405.4500122,711.2374268,405.4500122,33.58613968,405.4500122,3.529759169,
,,508.0499878,2.540918112,508.0499878,23.44049644,405.6000061,62.57814026,405.6000061,707.0350342,405.6000061,33.65952301,405.6000061,3.50581336,
